# ATLAS2, shifted to air wavelengths.
# Source: Bernhard Mayer, IFU.
# two columns, wavelength [nm] and irradiance [mW/ (m2 nm)]
#
200 7.07908 
200.05 6.96554 
200.1 6.9153 
200.15 7.08216 
200.2 7.32528 
200.25 7.41276 
200.3 7.42571 
200.35 7.35061 
200.4 7.12918 
200.45 7.14323 
200.5 7.38287 
200.55 7.67167 
200.6 7.79359 
200.65 7.54116 
200.7 7.4001 
200.75 7.36791 
200.8 7.41649 
200.85 7.48079 
200.9 7.64703 
200.95 7.85886 
201 7.93181 
201.05 7.58622 
201.1 7.14743 
201.15 7.41654 
201.2 7.86883 
201.25 8.24825 
201.3 8.49951 
201.35 8.4536 
201.4 8.21146 
201.45 7.99343 
201.5 7.87356 
201.55 7.87481 
201.6 7.88891 
201.65 8.14361 
201.7 8.59763 
201.75 8.83877 
201.8 8.98295 
201.85 8.8664 
201.9 8.67088 
201.95 8.63943 
202 8.598 
202.05 8.47527 
202.1 8.26106 
202.15 8.0383 
202.2 7.86302 
202.25 7.98907 
202.3 8.42929 
202.35 8.84681 
202.4 8.86402 
202.45 8.54667 
202.5 7.6589 
202.55 6.717 
202.6 6.47689 
202.65 6.72672 
202.7 7.61532 
202.75 8.6968 
202.8 9.06787 
202.85 9.15984 
202.9 9.00332 
202.95 9.01119 
203 9.13232 
203.05 9.48182 
203.1 10.0173 
203.15 10.1491 
203.2 9.88935 
203.25 9.50732 
203.3 8.88161 
203.35 8.20377 
203.4 8.19599 
203.45 8.49168 
203.5 8.85798 
203.55 9.5 
203.6 9.99174 
203.65 10.1218 
203.7 10.1781 
203.75 10.194 
203.8 9.93931 
203.85 9.49867 
203.9 9.10212 
203.95 8.8367 
204 9.0428 
204.05 9.56828 
204.1 10.0811 
204.15 10.552 
204.2 11.0076 
204.25 11.1975 
204.3 10.9965 
204.35 10.5977 
204.4 10.144 
204.45 10.1805 
204.5 10.5099 
204.55 10.9191 
204.6 11.1803 
204.65 10.9141 
204.7 10.5229 
204.75 10.181 
204.8 10.1698 
204.85 10.5127 
204.9 10.6847 
204.95 10.672 
205 10.7954 
205.05 10.8928 
205.1 10.9384 
205.15 10.9563 
205.2 11.015 
205.25 11.2174 
205.3 11.4138 
205.35 11.4955 
205.4 11.2981 
205.45 10.6572 
205.5 10.1446 
205.55 9.88547 
205.6 9.96849 
205.65 10.5407 
205.7 10.8602 
205.75 10.5799 
205.8 10.1788 
205.85 10.0061 
205.9 10.4647 
205.95 10.9812 
206 11.3351 
206.05 11.2718 
206.1 10.5158 
206.15 10.0776 
206.2 9.76374 
206.25 9.95379 
206.3 10.8061 
206.35 11.1769 
206.4 11.2383 
206.45 11.3416 
206.5 11.3863 
206.55 11.2878 
206.6 11.2105 
206.65 11.2979 
206.7 11.593 
206.75 11.6999 
206.8 11.6407 
206.85 11.4648 
206.9 11.3768 
206.95 11.4998 
207 11.6589 
207.05 11.899 
207.1 12.1059 
207.15 12.1623 
207.2 12.0841 
207.25 12.1145 
207.3 12.2838 
207.35 12.656 
207.4 12.8858 
207.45 12.9152 
207.5 13.0796 
207.55 13.261 
207.6 13.4527 
207.65 13.6341 
207.7 13.7032 
207.75 13.4557 
207.8 13.0042 
207.85 12.941 
207.9 13.1799 
207.95 13.5077 
208 13.6164 
208.05 13.421 
208.1 13.052 
208.15 12.8786 
208.2 12.7935 
208.25 12.8573 
208.3 13.1171 
208.35 13.3397 
208.4 13.302 
208.45 13.3755 
208.5 13.6941 
208.55 14.4682 
208.6 15.6233 
208.65 15.9337 
208.7 16.0092 
208.75 16.7105 
208.8 17.5822 
208.85 17.7494 
208.9 17.0662 
208.95 16.1706 
209 15.5482 
209.05 16.0065 
209.1 17.2871 
209.15 18.7885 
209.2 20.4904 
209.25 22.5822 
209.3 23.52 
209.35 21.7585 
209.4 19.6686 
209.45 19.8477 
209.5 21.4155 
209.55 23.4088 
209.6 23.8647 
209.65 22.9323 
209.7 23.1764 
209.75 25.0905 
209.8 25.9367 
209.85 24.9587 
209.9 22.1977 
209.95 20.3355 
210 19.8294 
210.05 22.584 
210.1 28.2932 
210.15 32.7191 
210.2 30.866 
210.25 26.4827 
210.3 21.6037 
210.35 20.8014 
210.4 22.7717 
210.45 27.4966 
210.5 34.9085 
210.55 38.0274 
210.6 37.0191 
210.65 33.5882 
210.7 31.9794 
210.75 30.9505 
210.8 28.0355 
210.85 24.0001 
210.9 20.9911 
210.95 20.7553 
211 21.732 
211.05 24.3602 
211.1 30.1112 
211.15 36.5965 
211.2 39.1384 
211.25 37.4593 
211.3 33.1225 
211.35 30.6379 
211.4 28.6047 
211.45 26.4552 
211.5 25.7558 
211.55 31.0192 
211.6 38.8141 
211.65 43.3737 
211.7 44.7687 
211.75 42.5679 
211.8 38.4087 
211.85 35.7182 
211.9 38.205 
211.95 46.1443 
212 49.9906 
212.05 47.529 
212.1 42.819 
212.15 36.3751 
212.2 29.5863 
212.25 26.9297 
212.3 23.8377 
212.35 18.8702 
212.4 14.6522 
212.45 15.1573 
212.5 19.1457 
212.55 25.3009 
212.6 31.6788 
212.65 35.175 
212.7 36.4146 
212.75 36.5278 
212.8 37.0838 
212.85 37.4132 
212.9 35.4128 
212.95 31.6287 
213 27.0035 
213.05 25.9733 
213.1 27.417 
213.15 29.1562 
213.2 30.6903 
213.25 31.1028 
213.3 31.2334 
213.35 31.1366 
213.4 30.3158 
213.45 27.5623 
213.5 26.1994 
213.55 27.0562 
213.6 31.9326 
213.65 37.8273 
213.7 41.0046 
213.75 40.5175 
213.8 35.4688 
213.85 26.3911 
213.9 22.9433 
213.95 26.9047 
214 34.638 
214.05 45.7671 
214.1 49.4205 
214.15 46.8013 
214.2 44.217 
214.25 44.0841 
214.3 45.8363 
214.35 46.1421 
214.4 45.3824 
214.45 42.2812 
214.5 37.5123 
214.55 35.2732 
214.6 34.4036 
214.65 33.7201 
214.7 34.3683 
214.75 35.5395 
214.8 37.3935 
214.85 40.1487 
214.9 44.5352 
214.95 46.0556 
215 41.6207 
215.05 35.6598 
215.1 31.2523 
215.15 31.9082 
215.2 34.8984 
215.25 38.2466 
215.3 44.3238 
215.35 48.7316 
215.4 45.5079 
215.45 42.4117 
215.5 39.5718 
215.55 36.1826 
215.6 33.3951 
215.65 30.2967 
215.7 26.0458 
215.75 22.4189 
215.8 21.1511 
215.85 20.9466 
215.9 23.6369 
215.95 31.0479 
216 37.9124 
216.05 41.8523 
216.1 42.8537 
216.15 41.0526 
216.2 39.1123 
216.25 38.9611 
216.3 39.305 
216.35 38.3545 
216.4 36.6046 
216.45 36.0396 
216.5 35.0441 
216.55 29.587 
216.6 22.2013 
216.65 20.8849 
216.7 22.0632 
216.75 25.19 
216.8 29.1561 
216.85 30.2139 
216.9 28.8923 
216.95 27.9712 
217 31.0612 
217.05 35.1771 
217.1 36.9613 
217.15 37.1482 
217.2 37.6357 
217.25 37.6497 
217.3 35.458 
217.35 32.4038 
217.4 28.5332 
217.45 26.2889 
217.5 26.4992 
217.55 28.7346 
217.6 32.1475 
217.65 32.9556 
217.7 29.3273 
217.75 26.8707 
217.8 27.9475 
217.85 33.5124 
217.9 41.5965 
217.95 47.8536 
218 51.7083 
218.05 53.5605 
218.1 54.4239 
218.15 55.949 
218.2 57.2144 
218.25 56.3031 
218.3 51.4269 
218.35 45.1745 
218.4 41.5719 
218.45 42.3206 
218.5 46.7433 
218.55 49.6254 
218.6 45.336 
218.65 34.8858 
218.7 28.9615 
218.75 31.9931 
218.8 37.0095 
218.85 39.6541 
218.9 39.1409 
218.95 39.6939 
219 42.747 
219.05 43.4938 
219.1 42.5509 
219.15 41.0478 
219.2 43.8878 
219.25 50.7369 
219.3 58.9155 
219.35 60.2867 
219.4 55.9158 
219.45 49.7659 
219.5 41.4322 
219.55 35.5919 
219.6 34.1029 
219.65 37.4541 
219.7 45.6033 
219.75 51.0005 
219.8 56.1284 
219.85 58.5529 
219.9 54.6365 
219.95 45.833 
220 39.7264 
220.05 37.3286 
220.1 37.0313 
220.15 42.2139 
220.2 50.4354 
220.25 58.5281 
220.3 64.9171 
220.35 65.4602 
220.4 61.4496 
220.45 58.5386 
220.5 56.2391 
220.55 54.5894 
220.6 52.0908 
220.65 47.6323 
220.7 43.4735 
220.75 40.4746 
220.8 38.8516 
220.85 36.813 
220.9 36.3923 
220.95 35.0259 
221 30.6789 
221.05 26.0054 
221.1 21.8599 
221.15 21.6291 
221.2 28.7447 
221.25 38.3366 
221.3 45.3476 
221.35 47.9182 
221.4 46.6807 
221.45 45.3762 
221.5 45.1196 
221.55 41.6541 
221.6 33.2086 
221.65 26.4353 
221.7 24.7073 
221.75 25.478 
221.8 30.4384 
221.85 39.3015 
221.9 45.6379 
221.95 49.9334 
222 51.9799 
222.05 53.9237 
222.1 55.702 
222.15 55.6595 
222.2 53.709 
222.25 49.0562 
222.3 45.9611 
222.35 48.2541 
222.4 49.4672 
222.45 48.8939 
222.5 48.0481 
222.55 48.2572 
222.6 46.8841 
222.65 45.561 
222.7 44.7146 
222.75 45.7245 
222.8 48.6608 
222.85 51.7155 
222.9 52.8626 
222.95 51.905 
223 47.9242 
223.05 43.9811 
223.1 44.3118 
223.15 50.366 
223.2 60.3294 
223.25 71.3546 
223.3 77.5749 
223.35 78.827 
223.4 76.9279 
223.45 75.5693 
223.5 75.373 
223.55 74.8208 
223.6 73.4623 
223.65 69.2926 
223.7 61.7827 
223.75 58.0896 
223.8 56.9221 
223.85 57.9924 
223.9 60.7112 
223.95 64.7957 
224 65.321 
224.05 60.9862 
224.1 55.1712 
224.15 52.1009 
224.2 51.2479 
224.25 50.6744 
224.3 49.2202 
224.35 47.9943 
224.4 48.9661 
224.45 51.5792 
224.5 55.7007 
224.55 60.824 
224.6 65.4874 
224.65 67.815 
224.7 70.0224 
224.75 70.0268 
224.8 66.4908 
224.85 60.5198 
224.9 55.0062 
224.95 53.3168 
225 53.5986 
225.05 52.4289 
225.1 50.7965 
225.15 52.0962 
225.2 57.1678 
225.25 57.136 
225.3 50.0151 
225.35 46.2077 
225.4 50.3195 
225.45 54.4416 
225.5 51.7896 
225.55 47.1081 
225.6 46.5277 
225.65 48.729 
225.7 50.3602 
225.75 52.0259 
225.8 53.969 
225.85 53.7942 
225.9 50.5136 
225.95 45.6807 
226 41.0395 
226.05 41.3772 
226.1 44.9884 
226.15 48.7816 
226.2 49.6376 
226.25 46.8358 
226.3 43.357 
226.35 40.5238 
226.4 37.536 
226.45 34.535 
226.5 32.4518 
226.55 32.4219 
226.6 33.4854 
226.65 33.7378 
226.7 33.0974 
226.75 32.4471 
226.8 32.1521 
226.85 31.4558 
226.9 30.478 
226.95 29.8875 
227 30.2704 
227.05 31.314 
227.1 32.4485 
227.15 33.2562 
227.2 34.4477 
227.25 36.0855 
227.3 36.4656 
227.35 35.3701 
227.4 34.9902 
227.45 36.4807 
227.5 37.8478 
227.55 36.9663 
227.6 36.8262 
227.65 39.3061 
227.7 43.2279 
227.75 44.7284 
227.8 45.7867 
227.85 46.5424 
227.9 45.8494 
227.95 44.9658 
228 46.7832 
228.05 52.1672 
228.1 59.8219 
228.15 63.8516 
228.2 62.6931 
228.25 58.7641 
228.3 52.7342 
228.35 49.7858 
228.4 53.3463 
228.45 58.4803 
228.5 63.216 
228.55 60.8325 
228.6 50.9041 
228.65 42.811 
228.7 38.576 
228.75 42.2509 
228.8 49.6539 
228.85 52.1852 
228.9 50.0087 
228.95 45.3902 
229 42.6629 
229.05 42.3085 
229.1 44.0016 
229.15 47.0219 
229.2 48.9159 
229.25 50.28 
229.3 51.716 
229.35 52.1951 
229.4 51.9627 
229.45 53.958 
229.5 57.5272 
229.55 57.9648 
229.6 52.9746 
229.65 44.7169 
229.7 36.8763 
229.75 31.7595 
229.8 31.6698 
229.85 34.6153 
229.9 37.4872 
229.95 38.8061 
230 38.7593 
230.05 40.4985 
230.1 43.4384 
230.15 47.804 
230.2 49.5319 
230.25 44.905 
230.3 41.8177 
230.35 43.8075 
230.4 51.0327 
230.45 58.8611 
230.5 65.9081 
230.55 73.9709 
230.6 77.7998 
230.65 74.3588 
230.7 69.2452 
230.75 64.6952 
230.8 60.2578 
230.85 54.8986 
230.9 49.5502 
230.95 45.4324 
231 41.2935 
231.05 36.7459 
231.1 33.6916 
231.15 32.9636 
231.2 33.3815 
231.25 33.893 
231.3 34.7387 
231.35 37.2001 
231.4 44.4034 
231.45 57.8793 
231.5 65.5078 
231.55 62.8177 
231.6 57.7324 
231.65 54.0951 
231.7 54.1901 
231.75 56.5846 
231.8 58.4389 
231.85 55.0866 
231.9 45.6121 
231.95 38.3888 
232 35.0398 
232.05 35.8093 
232.1 39.8779 
232.15 45.998 
232.2 55.7606 
232.25 68.7227 
232.3 78.714 
232.35 78.2466 
232.4 72.6695 
232.45 62.7817 
232.5 47.7266 
232.55 36.8222 
232.6 36.1384 
232.65 37.5932 
232.7 41.1992 
232.75 46.4094 
232.8 51.9666 
232.85 56.1393 
232.9 58.3241 
232.95 56.7299 
233 52.376 
233.05 46.6721 
233.1 40.4287 
233.15 36.3851 
233.2 34.565 
233.25 33.8006 
233.3 36.4615 
233.35 42.5033 
233.4 46.8447 
233.45 50.0538 
233.5 54.7348 
233.55 57.6586 
233.6 54.9239 
233.65 47.7062 
233.7 38.2397 
233.75 31.2816 
233.8 29.468 
233.85 30.5888 
233.9 34.1858 
233.95 38.7511 
234 42.3141 
234.05 45.3357 
234.1 48.6086 
234.15 49.0569 
234.2 43.402 
234.25 36.1604 
234.3 30.0394 
234.35 25.0688 
234.4 25.367 
234.45 27.3284 
234.5 29.1743 
234.55 31.0656 
234.6 32.8632 
234.65 33.6557 
234.7 33.085 
234.75 31.4056 
234.8 30.4811 
234.85 34.117 
234.9 40.7726 
234.95 48.4608 
235 53.5025 
235.05 55.0088 
235.1 56.9611 
235.15 59.2637 
235.2 61.7358 
235.25 62.1326 
235.3 59.5409 
235.35 55.5199 
235.4 52.5274 
235.45 51.9899 
235.5 54.2631 
235.55 58.8814 
235.6 63.8541 
235.65 65.3934 
235.7 62.4274 
235.75 60.2686 
235.8 55.1095 
235.85 43.5202 
235.9 33.9205 
235.95 31.5311 
236 33.5534 
236.05 38.5862 
236.1 43.8377 
236.15 47.3198 
236.2 53.4075 
236.25 59.7715 
236.3 56.9573 
236.35 47.7162 
236.4 41.8328 
236.45 38.8919 
236.5 40.9531 
236.55 42.9506 
236.6 41.4788 
236.65 40.1568 
236.7 41.0814 
236.75 43.008 
236.8 44.9101 
236.85 48.7776 
236.9 52.8897 
236.95 55.2304 
237 57.6649 
237.05 61.5672 
237.1 66.5016 
237.15 66.1287 
237.2 60.6482 
237.25 50.1535 
237.3 36.8925 
237.35 35.0661 
237.4 38.2681 
237.45 39.1757 
237.5 43.0515 
237.55 49.5516 
237.6 56.1526 
237.65 61.3598 
237.7 62.5558 
237.75 58.5076 
237.8 51.2342 
237.85 43.5025 
237.9 38.7145 
237.95 36.7914 
238 34.8023 
238.05 31.6062 
238.1 26.8767 
238.15 22.8725 
238.2 22.4208 
238.25 24.4677 
238.3 27.1388 
238.35 31.4118 
238.4 36.6379 
238.45 42.4817 
238.5 48.5001 
238.55 52.2189 
238.6 52.9224 
238.65 51.246 
238.7 47.3844 
238.75 40.4607 
238.8 32.6435 
238.85 31.8015 
238.9 38.1142 
238.95 46.9365 
239 55.5064 
239.05 59.5068 
239.1 58.4119 
239.15 56.1524 
239.2 55.3667 
239.25 55.3844 
239.3 54.5044 
239.35 48.6571 
239.4 38.1608 
239.45 30.0303 
239.5 25.3989 
239.55 24.2671 
239.6 29.6026 
239.65 38.3047 
239.7 43.7256 
239.75 44.6894 
239.8 39.7698 
239.85 34.2655 
239.9 33.6954 
239.95 36.7501 
240 42.538 
240.05 48.4324 
240.1 50.1795 
240.15 48.4696 
240.2 47.1051 
240.25 46.854 
240.3 45.2938 
240.35 39.6779 
240.4 31.891 
240.45 27.505 
240.5 29.0608 
240.55 31.6608 
240.6 31.2396 
240.65 31.8549 
240.7 35.5077 
240.75 40.7957 
240.8 46.6444 
240.85 48.8445 
240.9 45.5016 
240.95 39.1598 
241 31.9533 
241.05 27.5488 
241.1 30.3847 
241.15 36.4815 
241.2 39.3065 
241.25 38.7261 
241.3 37.359 
241.35 40.1051 
241.4 46.2276 
241.45 50.6563 
241.5 53.2228 
241.55 55.9054 
241.6 58.1004 
241.65 59.0623 
241.7 59.935 
241.75 62.497 
241.8 65.5094 
241.85 66.6756 
241.9 66.9085 
241.95 68.7098 
242 70.8937 
242.05 73.3649 
242.1 78.1011 
242.15 81.4442 
242.2 78.6237 
242.25 70.1499 
242.3 62.3458 
242.35 60.0841 
242.4 59.7196 
242.45 61.0969 
242.5 65.096 
242.55 72.3104 
242.6 79.7622 
242.65 83.7662 
242.7 83.0294 
242.75 75.7595 
242.8 66.6558 
242.85 63.1101 
242.9 65.5217 
242.95 71.5639 
243 75.6235 
243.05 76.6782 
243.1 73.987 
243.15 66.1968 
243.2 60.6692 
243.25 60.8838 
243.3 63.8284 
243.35 65.4398 
243.4 61.335 
243.45 54.5554 
243.5 52.8573 
243.55 55.9363 
243.6 59.9451 
243.65 63.3584 
243.7 68.3971 
243.75 71.4652 
243.8 66.6555 
243.85 59.3244 
243.9 55.1128 
243.95 55.6798 
244 61.353 
244.05 67.818 
244.1 71.7409 
244.15 73.7954 
244.2 73.295 
244.25 69.6691 
244.3 64.4788 
244.35 61.3146 
244.4 61.1328 
244.45 62.4728 
244.5 62.8597 
244.55 61.6644 
244.6 59.3758 
244.65 54.5787 
244.7 49.9449 
244.75 48.349 
244.8 49.5322 
244.85 52.5465 
244.9 53.273 
244.95 51.2333 
245 48.7784 
245.05 47.0399 
245.1 45.9526 
245.15 45.0494 
245.2 45.1216 
245.25 45.759 
245.3 45.5119 
245.35 45.271 
245.4 47.8572 
245.45 50.5044 
245.5 50.1912 
245.55 48.1511 
245.6 47.1869 
245.65 49.4473 
245.7 53.3371 
245.75 54.4246 
245.8 53.168 
245.85 51.0262 
245.9 48.8944 
245.95 48.4485 
246 47.6275 
246.05 45.0855 
246.1 42.524 
246.15 40.8009 
246.2 40.5285 
246.25 41.6835 
246.3 43.9311 
246.35 46.8401 
246.4 49.3735 
246.45 51.1445 
246.5 50.8962 
246.55 49.8877 
246.6 49.1721 
246.65 50.3538 
246.7 53.8389 
246.75 55.4749 
246.8 55.5271 
246.85 55.0914 
246.9 54.1702 
246.95 54.3137 
247 55.2725 
247.05 57.0956 
247.1 58.0461 
247.15 53.4439 
247.2 46.878 
247.25 44.3273 
247.3 48.5469 
247.35 57.4786 
247.4 62.8028 
247.45 63.6899 
247.5 62.4896 
247.55 60.812 
247.6 59.9499 
247.65 59.4539 
247.7 57.7367 
247.75 54.6261 
247.8 50.8451 
247.85 46.9281 
247.9 42.9896 
247.95 43.7099 
248 50.6354 
248.05 56.9191 
248.1 58.4407 
248.15 51.4814 
248.2 41.889 
248.25 34.7761 
248.3 29.6047 
248.35 31.7791 
248.4 39.8456 
248.45 46.1584 
248.5 50.8365 
248.55 53.4809 
248.6 50.5863 
248.65 45.8828 
248.7 40.9826 
248.75 36.577 
248.8 35.1999 
248.85 35.087 
248.9 35.0685 
248.95 33.5278 
249 30.6706 
249.05 30.5048 
249.1 34.3354 
249.15 40.8366 
249.2 48.9289 
249.25 54.7994 
249.3 58.1498 
249.35 61.7996 
249.4 67.1386 
249.45 71.4237 
249.5 70.4565 
249.55 67.003 
249.6 64.5963 
249.65 66.2273 
249.7 68.7333 
249.75 68.7321 
249.8 68.5249 
249.85 71.0493 
249.9 75.0115 
249.95 73.279 
250 64.0228 
250.05 52.6462 
250.1 49.707 
250.15 54.2377 
250.2 58.9294 
250.25 63.4132 
250.3 66.3587 
250.35 67.9681 
250.4 66.6507 
250.45 59.6897 
250.5 51.3279 
250.55 45.8221 
250.6 40.6651 
250.65 39.2543 
250.7 45.9258 
250.75 53.9082 
250.8 59.5792 
250.85 65.3273 
250.9 67.0409 
250.95 64.1441 
251 57.8876 
251.05 52.1575 
251.1 51.5364 
251.15 52.7766 
251.2 52.4004 
251.25 50.4968 
251.3 45.958 
251.35 41.1522 
251.4 38.9936 
251.45 37.538 
251.5 35.9131 
251.55 34.3377 
251.6 34.5518 
251.65 36.723 
251.7 38.4754 
251.75 38.373 
251.8 37.7805 
251.85 37.7169 
251.9 40.7188 
251.95 46.518 
252 49.0839 
252.05 48.001 
252.1 45.8126 
252.15 42.3476 
252.2 38.1081 
252.25 34.8602 
252.3 33.608 
252.35 34.901 
252.4 37.7313 
252.45 40.3596 
252.5 43.7485 
252.55 46.6354 
252.6 45.1812 
252.65 41.5258 
252.7 38.2311 
252.75 34.7415 
252.8 32.3775 
252.85 31.7312 
252.9 35.7979 
252.95 44.6494 
253 52.1288 
253.05 57.0608 
253.1 58.692 
253.15 57.3375 
253.2 55.4349 
253.25 53.9193 
253.3 53.3516 
253.35 53.6816 
253.4 53.5255 
253.45 51.8424 
253.5 49.6539 
253.55 48.5454 
253.6 49.7888 
253.65 52.1664 
253.7 53.4184 
253.75 53.3947 
253.8 52.3814 
253.85 53.3372 
253.9 56.9494 
253.95 58.2197 
254 54.8988 
254.05 52.4998 
254.1 53.5527 
254.15 55.8482 
254.2 60.5999 
254.25 64.8793 
254.3 65.504 
254.35 64.1824 
254.4 62.6199 
254.45 60.2618 
254.5 57.5813 
254.55 55.1535 
254.6 54.156 
254.65 56.2039 
254.7 58.1038 
254.75 56.7887 
254.8 52.9953 
254.85 49.632 
254.9 49.4439 
254.95 53.093 
255 64.9797 
255.05 79.8682 
255.1 86.1564 
255.15 87.9124 
255.2 84.2663 
255.25 79.6161 
255.3 84.3975 
255.35 91.2461 
255.4 92.1609 
255.45 85.2039 
255.5 81.1164 
255.55 82.6253 
255.6 81.4961 
255.65 78.6086 
255.7 79.7132 
255.75 86.9004 
255.8 97.9124 
255.85 103.274 
255.9 99.4382 
255.95 96.2874 
256 95.1007 
256.05 91.3504 
256.1 82.0921 
256.15 71.6826 
256.2 66.161 
256.25 66.1575 
256.3 71.7906 
256.35 80.7817 
256.4 90.0645 
256.45 100.943 
256.5 116.121 
256.55 124.582 
256.6 121.8 
256.65 118.11 
256.7 117.285 
256.75 118.299 
256.8 121.976 
256.85 129.302 
256.9 138.357 
256.95 139.282 
257 134.83 
257.05 132.838 
257.1 133.531 
257.15 137 
257.2 142.232 
257.25 149.598 
257.3 153.732 
257.35 139.983 
257.4 110.329 
257.45 89.1185 
257.5 76.9752 
257.55 72.4877 
257.6 80.3749 
257.65 95.1583 
257.7 109.442 
257.75 122.865 
257.8 137.811 
257.85 148.201 
257.9 154.18 
257.95 163.195 
258 180.152 
258.05 197.289 
258.1 196.979 
258.15 162.072 
258.2 125.66 
258.25 124.526 
258.3 130.545 
258.35 117.84 
258.4 92.7648 
258.45 75.4526 
258.5 70.8489 
258.55 73.5905 
258.6 86.4862 
258.65 102.608 
258.7 114.12 
258.75 125.024 
258.8 149.366 
258.85 180.595 
258.9 195.078 
258.95 180.711 
259 145.813 
259.05 120.657 
259.1 116.885 
259.15 118.318 
259.2 111.217 
259.25 96.6102 
259.3 83.6252 
259.35 82.4229 
259.4 101.636 
259.45 118.844 
259.5 119.573 
259.55 115.789 
259.6 105.237 
259.65 88.3756 
259.7 69.7494 
259.75 55.1097 
259.8 46.9951 
259.85 49.7692 
259.9 59.344 
259.95 68.8695 
260 81.7175 
260.05 96.7445 
260.1 109.895 
260.15 118.902 
260.2 123.967 
260.25 121.667 
260.3 116.058 
260.35 110.829 
260.4 100.818 
260.45 87.0076 
260.5 74.4904 
260.55 65.7015 
260.6 60.9312 
260.65 62.6058 
260.7 72.7756 
260.75 85.1223 
260.8 94.8311 
260.85 100.668 
260.9 101.092 
260.95 95.24 
261 84.5089 
261.05 71.1979 
261.1 62.8354 
261.15 62.4113 
261.2 64.1748 
261.25 65.8433 
261.3 66.5197 
261.35 72.2207 
261.4 86.2409 
261.45 105.025 
261.5 119.335 
261.55 120.799 
261.6 113.145 
261.65 97.0427 
261.7 82.106 
261.75 85.6835 
261.8 100.922 
261.85 117.2 
261.9 126.106 
261.95 122.667 
262 115.377 
262.05 109.214 
262.1 109.583 
262.15 123.355 
262.2 133.709 
262.25 134.175 
262.3 136.033 
262.35 134.729 
262.4 127.892 
262.45 112.644 
262.5 94.3149 
262.55 88.5071 
262.6 92.1759 
262.65 95.911 
262.7 94.8729 
262.75 91.0263 
262.8 91.3135 
262.85 94.9747 
262.9 89.2578 
262.95 77.485 
263 69.1012 
263.05 64.4641 
263.1 68.2753 
263.15 81.0018 
263.2 99.572 
263.25 120.699 
263.3 143.329 
263.35 164.784 
263.4 174.042 
263.45 175.001 
263.5 180.975 
263.55 199.555 
263.6 222.019 
263.65 242.733 
263.7 265.407 
263.75 288.789 
263.8 289.762 
263.85 272.45 
263.9 260.101 
263.95 246.994 
264 236.997 
264.05 238.846 
264.1 256.285 
264.15 297.519 
264.2 343.727 
264.25 357.409 
264.3 337.11 
264.35 301.607 
264.4 273.719 
264.45 259.412 
264.5 247.78 
264.55 238.257 
264.6 235.396 
264.65 225.673 
264.7 206.17 
264.75 187.627 
264.8 183.518 
264.85 194.887 
264.9 207.006 
264.95 215.538 
265 218.666 
265.05 221.953 
265.1 228.802 
265.15 237.478 
265.2 247.769 
265.25 256.731 
265.3 268.916 
265.35 290.666 
265.4 312.917 
265.45 318.794 
265.5 307.167 
265.55 290.111 
265.6 287.842 
265.65 291.946 
265.7 282.878 
265.75 269.577 
265.8 267.183 
265.85 283.005 
265.9 296.68 
265.95 295.217 
266 281.729 
266.05 255.052 
266.1 239.796 
266.15 241.66 
266.2 242.142 
266.25 226.419 
266.3 209.562 
266.35 224.277 
266.4 264.41 
266.45 282.941 
266.5 262.234 
266.55 232.833 
266.6 229.005 
266.65 254.186 
266.7 275.036 
266.75 271.998 
266.8 252.23 
266.85 228.243 
266.9 229.329 
266.95 259.352 
267 285.551 
267.05 290.155 
267.1 255.12 
267.15 204.741 
267.2 185.009 
267.25 207.594 
267.3 261.394 
267.35 307.67 
267.4 326.121 
267.45 324.308 
267.5 313.732 
267.55 296.511 
267.6 279.102 
267.65 257.604 
267.7 238.494 
267.75 224.947 
267.8 209.364 
267.85 209.265 
267.9 225.95 
267.95 243.257 
268 255.811 
268.05 264.294 
268.1 268.689 
268.15 267.397 
268.2 262.394 
268.25 254.573 
268.3 244.569 
268.35 235.781 
268.4 240.521 
268.45 255.952 
268.5 271.508 
268.55 279.669 
268.6 274.52 
268.65 266.166 
268.7 255.416 
268.75 239.658 
268.8 225.254 
268.85 214.032 
268.9 205.143 
268.95 203.871 
269 216.175 
269.05 239.165 
269.1 252.991 
269.15 254.912 
269.2 257.396 
269.25 267.116 
269.3 275.5 
269.35 261.586 
269.4 225.413 
269.45 198.582 
269.5 190.028 
269.55 199.02 
269.6 225.407 
269.65 240.707 
269.7 231.176 
269.75 221.022 
269.8 234.249 
269.85 274.812 
269.9 321.051 
269.95 345.779 
270 322.609 
270.05 270.974 
270.1 246.205 
270.15 255.555 
270.2 280.077 
270.25 294.043 
270.3 296.036 
270.35 305.584 
270.4 330.294 
270.45 317.219 
270.5 271.805 
270.55 249.986 
270.6 244.239 
270.65 249.689 
270.7 255.283 
270.75 247.145 
270.8 243.873 
270.85 254.359 
270.9 263.87 
270.95 263.056 
271 255.377 
271.05 246.937 
271.1 265.797 
271.15 297.843 
271.2 313.889 
271.25 289.301 
271.3 226.013 
271.35 191.703 
271.4 186.496 
271.45 204.003 
271.5 234.206 
271.55 252.127 
271.6 260.116 
271.65 244.799 
271.7 201.677 
271.75 160.992 
271.8 131.73 
271.85 113.148 
271.9 115.492 
271.95 123.551 
272 128.192 
272.05 147.473 
272.1 184.565 
272.15 203.132 
272.2 199.218 
272.25 188.658 
272.3 178.404 
272.35 181.047 
272.4 191.517 
272.45 200.424 
272.5 205.703 
272.55 201.46 
272.6 193.24 
272.65 186.095 
272.7 194.14 
272.75 242.075 
272.8 294.697 
272.85 314.402 
272.9 307.426 
272.95 276.616 
273 250.981 
273.05 247.826 
273.1 244.855 
273.15 232.775 
273.2 216.789 
273.25 200.742 
273.3 186.859 
273.35 189.533 
273.4 199.543 
273.45 199.241 
273.5 195.184 
273.55 177.84 
273.6 151.427 
273.65 136.543 
273.7 139.186 
273.75 145.947 
273.8 141.033 
273.85 133.634 
273.9 133.059 
273.95 143.895 
274 156.384 
274.05 147.445 
274.1 130.262 
274.15 112.845 
274.2 100.542 
274.25 101.033 
274.3 105.961 
274.35 121.167 
274.4 155.521 
274.45 164.805 
274.5 146.075 
274.55 117.824 
274.6 97.5045 
274.65 115.754 
274.7 139.199 
274.75 146.261 
274.8 122.005 
274.85 90.1414 
274.9 85.489 
274.95 102.639 
275 140.713 
275.05 187.47 
275.1 220.503 
275.15 237.362 
275.2 233.012 
275.25 204.856 
275.3 183.809 
275.35 173.268 
275.4 148.604 
275.45 118.921 
275.5 100.756 
275.55 104.499 
275.6 135.697 
275.65 186.742 
275.7 237.435 
275.75 282.677 
275.8 307.712 
275.85 297.033 
275.9 267.703 
275.95 252.992 
276 244.951 
276.05 223.844 
276.1 199.329 
276.15 189.657 
276.2 207.64 
276.25 240.832 
276.3 266.046 
276.35 284.917 
276.4 299.988 
276.45 294.052 
276.5 275.044 
276.55 260.327 
276.6 249.644 
276.65 240.934 
276.7 232.067 
276.75 223.984 
276.8 221.144 
276.85 224.177 
276.9 245.584 
276.95 269.676 
277 283.213 
277.05 273.578 
277.1 253.19 
277.15 250.986 
277.2 261.035 
277.25 277.906 
277.3 288.101 
277.35 283.109 
277.4 270.595 
277.45 251.693 
277.5 232.373 
277.55 221.016 
277.6 218.147 
277.65 214.453 
277.7 197.899 
277.75 174.515 
277.8 164.862 
277.85 163.441 
277.9 161.293 
277.95 161.593 
278 163.495 
278.05 165.697 
278.1 171.447 
278.15 170.293 
278.2 163.564 
278.25 160.474 
278.3 163.775 
278.35 171.753 
278.4 176.631 
278.45 178.247 
278.5 177.219 
278.55 171.029 
278.6 163.882 
278.65 153.59 
278.7 141.786 
278.75 132.876 
278.8 128.224 
278.85 121.847 
278.9 115.123 
278.95 108.743 
279 101.013 
279.05 95.2551 
279.1 91.4158 
279.15 83.8119 
279.2 75.1044 
279.25 69.265 
279.3 66.0065 
279.35 66.1259 
279.4 77.1343 
279.45 89.8435 
279.5 85.1871 
279.55 71.8212 
279.6 61.1008 
279.65 58.3699 
279.7 60.575 
279.75 65.8886 
279.8 75.3076 
279.85 80.4801 
279.9 81.8699 
279.95 77.2551 
280 68.427 
280.05 65.8286 
280.1 71.4766 
280.15 79.6077 
280.2 81.52 
280.25 77.0505 
280.3 71.7915 
280.35 70.2404 
280.4 78.884 
280.45 92.9958 
280.5 100.176 
280.55 105.065 
280.6 113.279 
280.65 123.762 
280.7 133.572 
280.75 144.794 
280.8 154.706 
280.85 163.654 
280.9 168.686 
280.95 169.114 
281 167.912 
281.05 166.365 
281.1 166.396 
281.15 167.304 
281.2 175.075 
281.25 192.146 
281.3 217.987 
281.35 242.012 
281.4 256.485 
281.45 255.707 
281.5 244.214 
281.55 237.351 
281.6 234.086 
281.65 237.285 
281.7 247.713 
281.75 258.008 
281.8 270.238 
281.85 282.449 
281.9 290.592 
281.95 293.824 
282 290.183 
282.05 284.173 
282.1 280.345 
282.15 279.918 
282.2 285.286 
282.25 309.282 
282.3 334.295 
282.35 331.089 
282.4 312.698 
282.45 280.096 
282.5 267.154 
282.55 286.02 
282.6 300.117 
282.65 305.052 
282.7 308.632 
282.75 314.38 
282.8 327.374 
282.85 344.572 
282.9 352.939 
282.95 348.954 
283 346.222 
283.05 342.217 
283.1 326.74 
283.15 320.222 
283.2 331.662 
283.25 341.572 
283.3 336.74 
283.35 305.076 
283.4 270.681 
283.45 249.009 
283.5 248.79 
283.55 292.619 
283.6 333.091 
283.65 351.941 
283.7 353.435 
283.75 343.136 
283.8 335.882 
283.85 323.693 
283.9 305.496 
283.95 290.286 
284 291.396 
284.05 312.906 
284.1 328.034 
284.15 295.045 
284.2 255.509 
284.25 230.789 
284.3 235.504 
284.35 273.609 
284.4 283.713 
284.45 264.775 
284.5 241.591 
284.55 221.26 
284.6 204.854 
284.65 186.197 
284.7 169.449 
284.75 151.91 
284.8 135.264 
284.85 123.537 
284.9 112.436 
284.95 96.067 
285 76.8096 
285.05 63.126 
285.1 54.4424 
285.15 54.2191 
285.2 65.9432 
285.25 80.2763 
285.3 95.9826 
285.35 113.672 
285.4 132.711 
285.45 144.632 
285.5 151.567 
285.55 172.231 
285.6 196.453 
285.65 209.57 
285.7 218.175 
285.75 235.053 
285.8 268.777 
285.85 305.506 
285.9 322.23 
285.95 324.836 
286 326.978 
286.05 330.023 
286.1 330.852 
286.15 332.735 
286.2 337.838 
286.25 345.827 
286.3 355.314 
286.35 361.712 
286.4 364.211 
286.45 365.261 
286.5 363.641 
286.55 351.002 
286.6 330.233 
286.65 314.369 
286.7 305.804 
286.75 304.809 
286.8 303.443 
286.85 320.054 
286.9 358.529 
286.95 396.863 
287 427.35 
287.05 443.973 
287.1 435.838 
287.15 417.99 
287.2 401.776 
287.25 378.741 
287.3 367.39 
287.35 369.755 
287.4 369.486 
287.45 352.561 
287.5 334.424 
287.55 329.672 
287.6 346.209 
287.65 356.411 
287.7 344.965 
287.75 321.174 
287.8 290.106 
287.85 251.158 
287.9 219.351 
287.95 186.637 
288 157.585 
288.05 130.84 
288.1 144.072 
288.15 187.601 
288.2 225.518 
288.25 273.332 
288.3 341.027 
288.35 396.504 
288.4 431.213 
288.45 440.535 
288.5 431.222 
288.55 419.257 
288.6 410.424 
288.65 405.033 
288.7 404.601 
288.75 406.931 
288.8 406.183 
288.85 404.721 
288.9 406.618 
288.95 410.713 
289 413.333 
289.05 415.798 
289.1 418.553 
289.15 417.61 
289.2 415.474 
289.25 415.839 
289.3 416.222 
289.35 433.272 
289.4 473.014 
289.45 504.042 
289.5 521.264 
289.55 525.803 
289.6 520.599 
289.65 517.075 
289.7 512.413 
289.75 522.112 
289.8 559.804 
289.85 592.97 
289.9 617.827 
289.95 633.972 
290 614.224 
290.05 573.55 
290.1 551.077 
290.15 575.97 
290.2 621.469 
290.25 647.548 
290.3 656.523 
290.35 654.351 
290.4 630.841 
290.45 604.875 
290.5 589.067 
290.55 582.617 
290.6 576.834 
290.65 565.564 
290.7 553.166 
290.75 548.199 
290.8 551.804 
290.85 552.866 
290.9 553.105 
290.95 551.393 
291 551.457 
291.05 565.981 
291.1 595.165 
291.15 632.435 
291.2 639.403 
291.25 622.492 
291.3 594.484 
291.35 555.294 
291.4 521.97 
291.45 521.483 
291.5 535.503 
291.55 547.171 
291.6 536.006 
291.65 516.897 
291.7 508.812 
291.75 524.004 
291.8 551.066 
291.85 560.094 
291.9 557.77 
291.95 556.458 
292 564.551 
292.05 575.277 
292.1 579.013 
292.15 554.558 
292.2 510.224 
292.25 465.928 
292.3 457.855 
292.35 470.243 
292.4 468.733 
292.45 435.671 
292.5 411.14 
292.55 433.573 
292.6 481.232 
292.65 466.755 
292.7 415.629 
292.75 396.799 
292.8 405.527 
292.85 489.798 
292.9 580.675 
292.95 609.617 
293 628.678 
293.05 640.013 
293.1 636.754 
293.15 614.094 
293.2 578.91 
293.25 561.588 
293.3 591.473 
293.35 635.386 
293.4 664.37 
293.45 612.53 
293.5 463.938 
293.55 358.072 
293.6 339.827 
293.65 375.178 
293.7 420.658 
293.75 439.865 
293.8 457.954 
293.85 489.746 
293.9 505.183 
293.95 492.394 
294 472.606 
294.05 460.115 
294.1 517.916 
294.15 570.228 
294.2 578.141 
294.25 552.964 
294.3 500.461 
294.35 492.304 
294.4 533.459 
294.45 594.863 
294.5 632.591 
294.55 583.065 
294.6 480.119 
294.65 367.815 
294.7 295.644 
294.75 313.83 
294.8 355.796 
294.85 399.576 
294.9 473.406 
294.95 541.51 
295 591.902 
295.05 626.015 
295.1 650.044 
295.15 640.05 
295.2 570.626 
295.25 472.606 
295.3 431.431 
295.35 500.357 
295.4 573.841 
295.45 606.525 
295.5 572.438 
295.55 494.23 
295.6 469.069 
295.65 507.857 
295.7 584.063 
295.75 628.768 
295.8 611.328 
295.85 572.267 
295.9 537.173 
295.95 532.536 
296 552.822 
296.05 580.021 
296.1 633.383 
296.15 676.661 
296.2 672.041 
296.25 634.853 
296.3 560.48 
296.35 446.188 
296.4 359.927 
296.45 319.15 
296.5 289.128 
296.55 265.126 
296.6 321.295 
296.65 389.083 
296.7 437.787 
296.75 451.273 
296.8 405.325 
296.85 342.977 
296.9 318.303 
296.95 367.934 
297 447.247 
297.05 478.493 
297.1 458.732 
297.15 403.884 
297.2 384.771 
297.25 408.747 
297.3 475.01 
297.35 557.683 
297.4 585.707 
297.45 576.879 
297.5 578.926 
297.55 622.484 
297.6 699.203 
297.65 733.608 
297.7 722.315 
297.75 677.198 
297.8 586.154 
297.85 530.934 
297.9 510.885 
297.95 483.019 
298 411.462 
298.05 355.236 
298.1 343.96 
298.15 354.23 
298.2 335.487 
298.25 299.877 
298.3 280.388 
298.35 278.892 
298.4 290.42 
298.45 319.725 
298.5 357.897 
298.55 389.102 
298.6 391.237 
298.65 402.404 
298.7 439.547 
298.75 475.106 
298.8 532.236 
298.85 602.52 
298.9 652.843 
298.95 661.524 
299 626.969 
299.05 567.995 
299.1 536.961 
299.15 514.72 
299.2 488.317 
299.25 445.339 
299.3 373.387 
299.35 344.769 
299.4 371.271 
299.45 438.107 
299.5 532.999 
299.55 608.139 
299.6 612.058 
299.65 593.371 
299.7 557.537 
299.75 488.184 
299.8 397.521 
299.85 318.278 
299.9 283.375 
299.95 272.805 
300 279.488 
300.05 288.162 
300.1 292.536 
300.15 299.422 
300.2 327.309 
300.25 369.176 
300.3 434.462 
300.35 503.671 
300.4 530.13 
300.45 492.216 
300.5 440.886 
300.55 405.917 
300.6 373.465 
300.65 346.044 
300.7 340.427 
300.75 357.164 
300.8 387.667 
300.85 478.475 
300.9 566.094 
300.95 557.567 
301 519.649 
301.05 491.49 
301.1 490.436 
301.15 522.712 
301.2 547.101 
301.25 548.998 
301.3 541.728 
301.35 536.479 
301.4 534.38 
301.45 534.393 
301.5 523.513 
301.55 484.737 
301.6 434.078 
301.65 398.328 
301.7 369.762 
301.75 335.407 
301.8 303.505 
301.85 275.287 
301.9 221.499 
301.95 201.104 
302 256.005 
302.05 324.413 
302.1 428.993 
302.15 555.267 
302.2 594.138 
302.25 561.008 
302.3 530.387 
302.35 490.942 
302.4 454.089 
302.45 445.061 
302.5 480.19 
302.55 557.412 
302.6 659.402 
302.65 734.446 
302.7 744.275 
302.75 694.5 
302.8 632.027 
302.85 596.114 
302.9 576.773 
302.95 543.773 
303 555.415 
303.05 600.161 
303.1 664.493 
303.15 747.278 
303.2 755.305 
303.25 721.641 
303.3 720.824 
303.35 738.751 
303.4 762.709 
303.45 741.272 
303.5 692.59 
303.55 575.287 
303.6 450.838 
303.65 423.075 
303.7 468.65 
303.75 545.755 
303.8 620.043 
303.85 643.331 
303.9 621.848 
303.95 554.848 
304 488.926 
304.05 471.066 
304.1 487.097 
304.15 556.892 
304.2 637.807 
304.25 686.644 
304.3 704.734 
304.35 715.658 
304.4 737.96 
304.45 734.415 
304.5 654.891 
304.55 546.87 
304.6 441.591 
304.65 406.326 
304.7 472.75 
304.75 556.1 
304.8 642.413 
304.85 666.297 
304.9 651.214 
304.95 635.747 
305 719.913 
305.05 828.93 
305.1 866.055 
305.15 800.845 
305.2 703.329 
305.25 603.791 
305.3 567.662 
305.35 581.018 
305.4 614.874 
305.45 639.444 
305.5 607.882 
305.55 519.642 
305.6 411.824 
305.65 348.462 
305.7 331.365 
305.75 337.479 
305.8 364.614 
305.85 444.472 
305.9 562.863 
305.95 660.042 
306 693.251 
306.05 709.917 
306.1 712.227 
306.15 686.949 
306.2 637.727 
306.25 542.845 
306.3 519.76 
306.35 548.082 
306.4 577.257 
306.45 558.522 
306.5 492.256 
306.55 434.097 
306.6 409.751 
306.65 434.631 
306.7 557.72 
306.75 639.698 
306.8 676.545 
306.85 700.782 
306.9 714.682 
306.95 698.512 
307 664.128 
307.05 632.338 
307.1 624.419 
307.15 632.151 
307.2 656.283 
307.25 681.959 
307.3 647.276 
307.35 587.821 
307.4 569.68 
307.45 571.686 
307.5 588.084 
307.55 659.338 
307.6 674.046 
307.65 635.243 
307.7 592.68 
307.75 644.044 
307.8 698.446 
307.85 707.617 
307.9 699.127 
307.95 642.102 
308 572.248 
308.05 516.734 
308.1 512.764 
308.15 524.373 
308.2 562.72 
308.25 620.194 
308.3 693.997 
308.35 791.491 
308.4 808.383 
308.45 766.29 
308.5 707.844 
308.55 641.028 
308.6 586.255 
308.65 561.477 
308.7 574.663 
308.75 597.036 
308.8 605.856 
308.85 589.17 
308.9 561.262 
308.95 500.842 
309 455.059 
309.05 444.035 
309.1 405.719 
309.15 360.342 
309.2 380.036 
309.25 470.409 
309.3 547.985 
309.35 617.566 
309.4 639.104 
309.45 575.02 
309.5 492.892 
309.55 443.857 
309.6 460.144 
309.65 535.229 
309.7 565.773 
309.75 553.987 
309.8 448.843 
309.85 351.447 
309.9 309.973 
309.95 292.766 
310 326.984 
310.05 399.163 
310.1 478.489 
310.15 563.832 
310.2 665.043 
310.25 730.738 
310.3 742.736 
310.35 726.369 
310.4 712.351 
310.45 721.725 
310.5 742.047 
310.55 759.99 
310.6 808.897 
310.65 848.313 
310.7 861.089 
310.75 864.886 
310.8 831.756 
310.85 775.371 
310.9 744.861 
310.95 750.13 
311 774.793 
311.05 807.426 
311.1 838.303 
311.15 858.93 
311.2 830.726 
311.25 756.371 
311.3 736.615 
311.35 761.939 
311.4 791.799 
311.45 769.447 
311.5 707.956 
311.55 658.696 
311.6 632.844 
311.65 625.448 
311.7 613.549 
311.75 607.253 
311.8 591.384 
311.85 581.732 
311.9 582.75 
311.95 582.6 
312 580.551 
312.05 573.589 
312.1 625.943 
312.15 704.359 
312.2 747.107 
312.25 768.672 
312.3 753.94 
312.35 700.128 
312.4 638.709 
312.45 610.02 
312.5 624.952 
312.55 661.639 
312.6 698.953 
312.65 706.075 
312.7 699.665 
312.75 698.993 
312.8 711.217 
312.85 707.97 
312.9 686.024 
312.95 672.67 
313 667.687 
313.05 666.625 
313.1 665.811 
313.15 658.951 
313.2 645.589 
313.25 632.054 
313.3 641.764 
313.35 667.453 
313.4 686.067 
313.45 698.365 
313.5 713.868 
313.55 753.487 
313.6 789.427 
313.65 822.894 
313.7 849.245 
313.75 849.379 
313.8 824.833 
313.85 794.2 
313.9 791.889 
313.95 827.043 
314 842.2 
314.05 823.926 
314.1 754.381 
314.15 625.636 
314.2 464.141 
314.25 376.622 
314.3 373.189 
314.35 426.723 
314.4 488.94 
314.45 561.072 
314.5 624.822 
314.55 632.546 
314.6 627.209 
314.65 653.693 
314.7 721.83 
314.75 791.986 
314.8 798.438 
314.85 775.68 
314.9 752.214 
314.95 740.581 
315 739.613 
315.05 745.045 
315.1 753.688 
315.15 757.907 
315.2 750.318 
315.25 737.484 
315.3 725.804 
315.35 705.753 
315.4 699.449 
315.45 679.28 
315.5 638.18 
315.55 560.281 
315.6 465.436 
315.65 427.464 
315.7 415.875 
315.75 415.346 
315.8 444.683 
315.85 460.424 
315.9 462.723 
315.95 470.361 
316 491.715 
316.05 535.826 
316.1 594.111 
316.15 652.123 
316.2 683.266 
316.25 671.818 
316.3 656.872 
316.35 657.247 
316.4 653.305 
316.45 650.693 
316.5 668.218 
316.55 697.556 
316.6 728.971 
316.65 716.837 
316.7 676.846 
316.75 665.493 
316.8 708.154 
316.85 788.305 
316.9 859.757 
316.95 899.121 
317 920.328 
317.05 929.337 
317.1 926.027 
317.15 912.428 
317.2 888.487 
317.25 856.985 
317.3 834.284 
317.35 828.17 
317.4 836.307 
317.45 875.388 
317.5 929.977 
317.55 933.803 
317.6 846.366 
317.65 740.805 
317.7 658.281 
317.75 585.606 
317.8 532.001 
317.85 509.049 
317.9 518.455 
317.95 527.324 
318 524.513 
318.05 535.586 
318.1 556.207 
318.15 574.919 
318.2 594.504 
318.25 617.521 
318.3 628.791 
318.35 650.53 
318.4 694.739 
318.45 712.389 
318.5 713.103 
318.55 713.634 
318.6 714.604 
318.65 731.396 
318.7 798.38 
318.75 865.367 
318.8 908.69 
318.85 886.885 
318.9 812.591 
318.95 723.724 
319 630.939 
319.05 541.738 
319.1 491.423 
319.15 519.057 
319.2 547.433 
319.25 603.165 
319.3 663.379 
319.35 694.147 
319.4 691.131 
319.45 681.569 
319.5 663.8 
319.55 676.693 
319.6 721.45 
319.65 835.394 
319.7 913.615 
319.75 880.492 
319.8 820.809 
319.85 773.095 
319.9 747.606 
319.95 778.576 
320 827.516 
320.05 841.022 
320.1 829.439 
320.15 818.827 
320.2 849.323 
320.25 896.838 
320.3 931.666 
320.35 906.833 
320.4 887.568 
320.45 898.756 
320.5 905.454 
320.55 917.247 
320.6 906.487 
320.65 872.068 
320.7 773.089 
320.75 719.949 
320.8 694.312 
320.85 667.77 
320.9 630.568 
320.95 589.977 
321 570.195 
321.05 569.127 
321.1 590.71 
321.15 578.3 
321.2 552.972 
321.25 535.664 
321.3 575.292 
321.35 650.685 
321.4 684.432 
321.45 699.571 
321.5 701.329 
321.55 663.521 
321.6 728.42 
321.65 787.156 
321.7 848.685 
321.75 856.076 
321.8 827.565 
321.85 846.234 
321.9 880.567 
321.95 857.697 
322 751.372 
322.05 676.402 
322.1 649.767 
322.15 661.011 
322.2 730.593 
322.25 783.004 
322.3 780.177 
322.35 735.344 
322.4 634.968 
322.45 588.336 
322.5 597.443 
322.55 602.252 
322.6 586.208 
322.65 565.5 
322.7 542.415 
322.75 525.669 
322.8 527.292 
322.85 548.589 
322.9 598.871 
322.95 684.338 
323 735.739 
323.05 759.847 
323.1 750.221 
323.15 705.203 
323.2 636.512 
323.25 590.932 
323.3 589.5 
323.35 617.799 
323.4 644.216 
323.45 641.014 
323.5 642.002 
323.55 663.45 
323.6 720.011 
323.65 715.279 
323.7 701.503 
323.75 681.827 
323.8 691.702 
323.85 755.977 
323.9 851.005 
323.95 861.223 
324 817.114 
324.05 795.499 
324.1 786.828 
324.15 777.888 
324.2 755.477 
324.25 757.443 
324.3 796.303 
324.35 824.417 
324.4 855.401 
324.45 873.427 
324.5 861.592 
324.55 817.735 
324.6 720.236 
324.65 677.55 
324.7 686.335 
324.75 708.186 
324.8 733.804 
324.85 747.134 
324.9 747.099 
324.95 755.795 
325 771.774 
325.05 797.739 
325.1 815.62 
325.15 827.089 
325.2 840.841 
325.25 847.175 
325.3 899.611 
325.35 973.373 
325.4 1015.13 
325.45 1030.53 
325.5 1011.64 
325.55 983.33 
325.6 959.849 
325.65 979.468 
325.7 1035.06 
325.75 1061.52 
325.8 1070.77 
325.85 1072.26 
325.9 1039.82 
325.95 1010.05 
326 998.95 
326.05 1005.52 
326.1 1018.17 
326.15 998.618 
326.2 969.034 
326.25 902.827 
326.3 862.59 
326.35 858.682 
326.4 873.699 
326.45 946.762 
326.5 1020.63 
326.55 1049.99 
326.6 1050.58 
326.65 1046.17 
326.7 1044.84 
326.75 1030.62 
326.8 1014.03 
326.85 995.483 
326.9 944.104 
326.95 872.653 
327 856.067 
327.05 860.224 
327.1 954.451 
327.15 1002.1 
327.2 990.516 
327.25 989.488 
327.3 999.992 
327.35 1034.65 
327.4 1003.81 
327.45 982.016 
327.5 939.464 
327.55 920.925 
327.6 929.055 
327.65 939.902 
327.7 937.862 
327.75 911.849 
327.8 888.661 
327.85 890.896 
327.9 932.295 
327.95 966.155 
328 940.663 
328.05 918.61 
328.1 890.084 
328.15 900.603 
328.2 938.469 
328.25 969.996 
328.3 971.664 
328.35 933.789 
328.4 861.669 
328.45 806.428 
328.5 747.682 
328.55 730.374 
328.6 765.082 
328.65 792.236 
328.7 848.385 
328.75 951.534 
328.8 1052.1 
328.85 1096.53 
328.9 1086.08 
328.95 1072.67 
329 1040.77 
329.05 1030 
329.1 1045.72 
329.15 1079.51 
329.2 1149.16 
329.25 1154.17 
329.3 1126.71 
329.35 1092.21 
329.4 1066.92 
329.45 1079.32 
329.5 1110.99 
329.55 1127.43 
329.6 1113.81 
329.65 1075.98 
329.7 1055.97 
329.75 1068.28 
329.8 1129.23 
329.85 1226.65 
329.9 1282.8 
329.95 1245.2 
330 1157.14 
330.05 1036.99 
330.1 964.973 
330.15 956.269 
330.2 991.397 
330.25 1020.14 
330.3 1016.32 
330.35 973.613 
330.4 855.834 
330.45 773.256 
330.5 741.312 
330.55 791.027 
330.6 884.885 
330.65 954.522 
330.7 1005.24 
330.75 1028.82 
330.8 1032.46 
330.85 1024.5 
330.9 1025.45 
330.95 1032.47 
331 1028.9 
331.05 1001.38 
331.1 972.843 
331.15 957.535 
331.2 926.795 
331.25 880.661 
331.3 856.758 
331.35 862.034 
331.4 889.915 
331.45 971.003 
331.5 1009.6 
331.55 1021.54 
331.6 1034.51 
331.65 1047.79 
331.7 1051.56 
331.75 1038.94 
331.8 1023.86 
331.85 995.822 
331.9 990.235 
331.95 1002.93 
332 987.934 
332.05 889.629 
332.1 801.553 
332.15 769.637 
332.2 791.902 
332.25 837.958 
332.3 915.81 
332.35 993.573 
332.4 1091.94 
332.45 1076.77 
332.5 1015.8 
332.55 987.156 
332.6 969.308 
332.65 954.633 
332.7 908.363 
332.75 857.592 
332.8 832.209 
332.85 830.134 
332.9 943.158 
332.95 1010.74 
333 1008 
333.05 985.379 
333.1 1009.47 
333.15 1028.54 
333.2 1022.35 
333.25 989.158 
333.3 903.639 
333.35 838.724 
333.4 784.267 
333.45 737.06 
333.5 709.811 
333.55 760.309 
333.6 820.271 
333.65 897.163 
333.7 954.68 
333.75 962.728 
333.8 951.345 
333.85 931.445 
333.9 939.96 
333.95 944.147 
334 934.391 
334.05 896.544 
334.1 901.459 
334.15 975.153 
334.2 1023.85 
334.25 1045.44 
334.3 1056.05 
334.35 1061.88 
334.4 1068.77 
334.45 1065.13 
334.5 1055.36 
334.55 1045.35 
334.6 1033.31 
334.65 979.108 
334.7 879.491 
334.75 764.234 
334.8 734.74 
334.85 771.646 
334.9 879.592 
334.95 980.692 
335 1056.2 
335.05 1085.22 
335.1 1086.6 
335.15 1054.96 
335.2 1025.29 
335.25 1020.61 
335.3 1032.59 
335.35 1070.93 
335.4 1119.34 
335.45 1133.27 
335.5 1119.93 
335.55 1085.29 
335.6 972.421 
335.65 882.068 
335.7 798.473 
335.75 682.395 
335.8 582.343 
335.85 516.666 
335.9 476.719 
335.95 470.889 
336 558.42 
336.05 627.938 
336.1 712.56 
336.15 849.411 
336.2 948.611 
336.25 1012.81 
336.3 1060.38 
336.35 1073.17 
336.4 1010.28 
336.45 963.694 
336.5 926.921 
336.55 867.865 
336.6 788.336 
336.65 757.385 
336.7 727.554 
336.75 682.874 
336.8 672.821 
336.85 687.448 
336.9 704.299 
336.95 722.761 
337 684.872 
337.05 654.921 
337.1 658.255 
337.15 703.119 
337.2 776.05 
337.25 852.221 
337.3 906.935 
337.35 959.146 
337.4 1039.47 
337.45 1091.8 
337.5 1102.19 
337.55 1086.75 
337.6 1057.13 
337.65 1007 
337.7 943.576 
337.75 866.966 
337.8 746.201 
337.85 669.4 
337.9 674.872 
337.95 735.903 
338 839.627 
338.05 930.466 
338.1 948.896 
338.15 926.1 
338.2 874.971 
338.25 886.92 
338.3 938.307 
338.35 974.808 
338.4 1013.18 
338.45 1078.13 
338.5 1087.96 
338.55 1015.05 
338.6 903.102 
338.65 865.359 
338.7 907.44 
338.75 985.133 
338.8 1061.67 
338.85 1070.24 
338.9 1035.69 
338.95 986.24 
339 896.45 
339.05 777.763 
339.1 726.972 
339.15 699.799 
339.2 718.776 
339.25 797.816 
339.3 885.871 
339.35 935.672 
339.4 952.302 
339.45 979.332 
339.5 1009.35 
339.55 1031.99 
339.6 1060.82 
339.65 1080.27 
339.7 1069.16 
339.75 1093.5 
339.8 1152.63 
339.85 1210.76 
339.9 1209.76 
339.95 1175.1 
340 1120.54 
340.05 1062.75 
340.1 1029 
340.15 1034.91 
340.2 1046.67 
340.25 1007.71 
340.3 972.601 
340.35 963.547 
340.4 987.143 
340.45 999.544 
340.5 973.314 
340.55 886.065 
340.6 865.756 
340.65 898.114 
340.7 930.944 
340.75 915.724 
340.8 907.522 
340.85 928.994 
340.9 973.877 
340.95 1042.72 
341 1066.45 
341.05 1031.54 
341.1 953.571 
341.15 859.812 
341.2 792.104 
341.25 720.395 
341.3 670.152 
341.35 703.944 
341.4 835.078 
341.45 918.164 
341.5 966.107 
341.55 957.854 
341.6 943.502 
341.65 959.268 
341.7 1017.4 
341.75 1093.44 
341.8 1132.38 
341.85 1156.6 
341.9 1125.23 
341.95 1090.33 
342 1073.39 
342.05 1005.65 
342.1 918.725 
342.15 864.507 
342.2 830.532 
342.25 836.031 
342.3 912.806 
342.35 1015.13 
342.4 1053.47 
342.45 1038.89 
342.5 954.015 
342.55 904.809 
342.6 907.452 
342.65 926.494 
342.7 964.971 
342.75 1095.94 
342.8 1195.19 
342.85 1217.89 
342.9 1209.55 
342.95 1118.23 
343 1058.46 
343.05 996.65 
343.1 921.395 
343.15 829.84 
343.2 805.228 
343.25 919.404 
343.3 1019.84 
343.35 1115.01 
343.4 1125.84 
343.45 1077.62 
343.5 995.78 
343.55 931.206 
343.6 894.58 
343.65 909.27 
343.7 932.787 
343.75 901.397 
343.8 810.385 
343.85 676.187 
343.9 546.592 
343.95 479.269 
344 522.543 
344.05 558.353 
344.1 605.34 
344.15 628.959 
344.2 623.232 
344.25 642.086 
344.3 691.292 
344.35 771.551 
344.4 795.737 
344.45 765.666 
344.5 750.148 
344.55 805.127 
344.6 901.229 
344.65 928.543 
344.7 926.607 
344.75 939.984 
344.8 999.235 
344.85 1065.76 
344.9 1104.27 
344.95 1112.07 
345 1043.42 
345.05 918.089 
345.1 843.947 
345.15 835.66 
345.2 907.024 
345.25 1012.76 
345.3 1081.89 
345.35 1102.56 
345.4 1075.78 
345.45 1018.13 
345.5 996.085 
345.55 981.428 
345.6 925.774 
345.65 852.771 
345.7 816.285 
345.75 811.115 
345.8 801.457 
345.85 775.488 
345.9 744.814 
345.95 719.455 
346 716.941 
346.05 785.046 
346.1 851.177 
346.15 918.932 
346.2 1034.28 
346.25 1068.86 
346.3 1057 
346.35 1007.11 
346.4 894.472 
346.45 819.936 
346.5 826.429 
346.55 891.874 
346.6 984.149 
346.65 1054.18 
346.7 1043.55 
346.75 1024.53 
346.8 1036.45 
346.85 1084.41 
346.9 1118.66 
346.95 1107.96 
347 1031.5 
347.05 939.174 
347.1 890.351 
347.15 879.767 
347.2 869.477 
347.25 847.321 
347.3 769.922 
347.35 712.955 
347.4 675.362 
347.45 654.473 
347.5 686.345 
347.55 754.536 
347.6 823.37 
347.65 906.307 
347.7 971.202 
347.75 995.564 
347.8 1001.63 
347.85 995.28 
347.9 982.395 
347.95 978.631 
348 977.701 
348.05 966.818 
348.1 911.475 
348.15 874.811 
348.2 850.632 
348.25 845.057 
348.3 845.365 
348.35 841.372 
348.4 851.577 
348.45 932.582 
348.5 1067.18 
348.55 1119.09 
348.6 1137.3 
348.65 1090.45 
348.7 958.291 
348.75 853.624 
348.8 789.352 
348.85 739.629 
348.9 722.227 
348.95 750.786 
349 799.382 
349.05 861.004 
349.1 780.873 
349.15 772.699 
349.2 817.875 
349.25 910.204 
349.3 996.651 
349.35 951.812 
349.4 881.809 
349.45 811.53 
349.5 743.119 
349.55 723.867 
349.6 738.937 
349.65 772.417 
349.7 928.422 
349.75 1091.8 
349.8 1162.18 
349.85 1157.39 
349.9 1122.72 
349.95 1099.58 
350 1099.42 
350.05 1102.48 
350.1 1127.88 
350.15 1187.6 
350.2 1225.82 
350.25 1208.69 
350.3 1125.69 
350.35 1058.97 
350.4 1022.17 
350.45 1007.74 
350.5 1002.9 
350.55 1036.51 
350.6 1105.54 
350.65 1140.57 
350.7 1149.86 
350.75 1094.98 
350.8 1004.23 
350.85 912.18 
350.9 882.875 
350.95 953.594 
351 986.416 
351.05 971.881 
351.1 929.672 
351.15 871.211 
351.2 812.34 
351.25 775.855 
351.3 757.553 
351.35 803.041 
351.4 920.442 
351.45 991.572 
351.5 1045.06 
351.55 1136.01 
351.6 1199.07 
351.65 1213.23 
351.7 1191.56 
351.75 1137.33 
351.8 1096.51 
351.85 1036.8 
351.9 987.787 
351.95 919.036 
352 885.247 
352.05 916.337 
352.1 947.769 
352.15 901.013 
352.2 789.068 
352.25 731.996 
352.3 702.248 
352.35 692.516 
352.4 686.267 
352.45 660.104 
352.5 674.605 
352.55 747.932 
352.6 877.814 
352.65 1023.25 
352.7 1069.15 
352.75 1085.51 
352.8 1079.14 
352.85 1057.25 
352.9 1066.65 
352.95 1073.33 
353 1009.22 
353.05 939.539 
353.1 899.146 
353.15 904.71 
353.2 1006.7 
353.25 1136 
353.3 1170.77 
353.35 1165.55 
353.4 1129.21 
353.45 1077.44 
353.5 1070.48 
353.55 1039.9 
353.6 1011.21 
353.65 1042.74 
353.7 1145.1 
353.75 1237.61 
353.8 1269.32 
353.85 1191.26 
353.9 1120.42 
353.95 1053.7 
354 993.69 
354.05 986.836 
354.1 1032.13 
354.15 1094.12 
354.2 1142.93 
354.25 1160.68 
354.3 1145.01 
354.35 1128.1 
354.4 1133.87 
354.45 1172.86 
354.5 1189.58 
354.55 1164.14 
354.6 1077.53 
354.65 1057.51 
354.7 1098.35 
354.75 1130.56 
354.8 1190.47 
354.85 1202.41 
354.9 1178.15 
354.95 1153.96 
355 1126.18 
355.05 1094.09 
355.1 1050.16 
355.15 1019.29 
355.2 982.035 
355.25 901.822 
355.3 859.367 
355.35 906.4 
355.4 988.943 
355.45 1077.06 
355.5 1093.27 
355.55 1072.25 
355.6 1029.27 
355.65 982.328 
355.7 936.999 
355.75 953.94 
355.8 979.997 
355.85 1012.81 
355.9 1032.72 
355.95 1033.24 
356 1049.09 
356.05 1118.56 
356.1 1195.06 
356.15 1243.04 
356.2 1217.44 
356.25 1135.84 
356.3 904.034 
356.35 701.09 
356.4 601.896 
356.45 583.229 
356.5 679.723 
356.55 795.387 
356.6 900.598 
356.65 939.752 
356.7 854.754 
356.75 696.753 
356.8 596.403 
356.85 546.381 
356.9 620.283 
356.95 696.986 
357 737.579 
357.05 793.093 
357.1 868.015 
357.15 907.636 
357.2 917.27 
357.25 906.965 
357.3 900.12 
357.35 908.267 
357.4 926.249 
357.45 959.984 
357.5 1003.56 
357.55 1020.24 
357.6 995.396 
357.65 893.541 
357.7 818.449 
357.75 786.896 
357.8 744.931 
357.85 712.585 
357.9 601.447 
357.95 433.398 
358 412.698 
358.05 465.664 
358.1 613.522 
358.15 723.538 
358.2 766.702 
358.25 773.446 
358.3 664.797 
358.35 523.002 
358.4 506.728 
358.45 515.567 
358.5 539.823 
358.55 588.305 
358.6 635.457 
358.65 691.101 
358.7 742.575 
358.75 747.908 
358.8 776.095 
358.85 829.226 
358.9 930.935 
358.95 1060.76 
359 1106.86 
359.05 1124.47 
359.1 1106.14 
359.15 1013.5 
359.2 981.77 
359.25 1001.29 
359.3 1041.24 
359.35 1096.13 
359.4 1142.31 
359.45 1176.7 
359.5 1206.98 
359.55 1210.96 
359.6 1186.81 
359.65 1170.14 
359.7 1159.15 
359.75 1159.93 
359.8 1205.52 
359.85 1253.27 
359.9 1298.34 
359.95 1295.21 
360 1180.04 
360.05 1078.21 
360.1 992.457 
360.15 945.758 
360.2 928.624 
360.25 927.304 
360.3 921.963 
360.35 886.375 
360.4 873.329 
360.45 895.173 
360.5 926.139 
360.55 987.325 
360.6 958.029 
360.65 844.624 
360.7 742.701 
360.75 668.813 
360.8 670.818 
360.85 715.846 
360.9 774.911 
360.95 882.732 
361 1025.91 
361.05 1052.63 
361.1 1037.11 
361.15 965.475 
361.2 898.2 
361.25 925.362 
361.3 980.762 
361.35 1060.73 
361.4 1135.9 
361.45 1157.24 
361.5 1143.09 
361.55 1062.11 
361.6 887.513 
361.65 726.919 
361.7 566.647 
361.75 531.744 
361.8 657.679 
361.85 800.863 
361.9 843.211 
361.95 877.389 
362 937.617 
362.05 1057.86 
362.1 1100.13 
362.15 1074.74 
362.2 1003.85 
362.25 962.606 
362.3 991.148 
362.35 1048.32 
362.4 1144.7 
362.45 1231.15 
362.5 1256.19 
362.55 1233.01 
362.6 1204.22 
362.65 1198.18 
362.7 1199.36 
362.75 1182.13 
362.8 1120.71 
362.85 974.535 
362.9 805.511 
362.95 685.068 
363 660.419 
363.05 759.341 
363.1 867.593 
363.15 938.109 
363.2 939.309 
363.25 902.9 
363.3 887.136 
363.35 922.54 
363.4 967.446 
363.45 1015.23 
363.5 1039.66 
363.55 1047 
363.6 1056.11 
363.65 1099.69 
363.7 1168.27 
363.75 1208.78 
363.8 1244.44 
363.85 1262.89 
363.9 1258.32 
363.95 1248.04 
364 1223.79 
364.05 1174.07 
364.1 1128.42 
364.15 1096.31 
364.2 1063.46 
364.25 1024.7 
364.3 961.58 
364.35 944.02 
364.4 970.148 
364.45 1016.73 
364.5 993.515 
364.55 925.009 
364.6 828.308 
364.65 790.738 
364.7 843.903 
364.75 894.423 
364.8 938.192 
364.85 987.658 
364.9 1020.83 
364.95 1033.25 
365 1064.72 
365.05 1156.01 
365.1 1249.28 
365.15 1286.92 
365.2 1296.43 
365.25 1262.05 
365.3 1244.83 
365.35 1221.96 
365.4 1221.79 
365.45 1245.67 
365.5 1282.49 
365.55 1304.56 
365.6 1289.48 
365.65 1311.12 
365.7 1361.27 
365.75 1386.76 
365.8 1370.33 
365.85 1324.36 
365.9 1320.37 
365.95 1346.73 
366 1347.11 
366.05 1323.8 
366.1 1285.58 
366.15 1236.99 
366.2 1187.9 
366.25 1151.97 
366.3 1170.51 
366.35 1261.33 
366.4 1294.56 
366.45 1262.19 
366.5 1244.86 
366.55 1222.65 
366.6 1238.58 
366.65 1246.06 
366.7 1193.43 
366.75 1120.7 
366.8 1068.74 
366.85 1061.46 
366.9 1117.45 
366.95 1202.9 
367 1286.87 
367.05 1358.6 
367.1 1372.35 
367.15 1311.86 
367.2 1268.72 
367.25 1230.49 
367.3 1235.18 
367.35 1306.07 
367.4 1359.57 
367.45 1357.85 
367.5 1239.59 
367.55 1125.33 
367.6 1041.49 
367.65 1064.76 
367.7 1104.21 
367.75 1076.38 
367.8 1015.49 
367.85 973.05 
367.9 956.138 
367.95 1055.89 
368 1115.9 
368.05 1129.8 
368.1 1136.92 
368.15 1189.54 
368.2 1234.93 
368.25 1229.22 
368.3 1191.46 
368.35 1128.36 
368.4 1074.06 
368.45 1048.13 
368.5 1019.41 
368.55 938.935 
368.6 890.774 
368.65 906.933 
368.7 961.702 
368.75 1053.89 
368.8 1112.54 
368.85 1171.28 
368.9 1255.7 
368.95 1356.19 
369 1415.95 
369.05 1404.4 
369.1 1355.7 
369.15 1267.6 
369.2 1172.1 
369.25 1141.06 
369.3 1157.59 
369.35 1200.46 
369.4 1238.24 
369.45 1230.02 
369.5 1223.18 
369.55 1221.16 
369.6 1236.03 
369.65 1268.22 
369.7 1302.2 
369.75 1386.42 
369.8 1452.23 
369.85 1444.91 
369.9 1422.27 
369.95 1376.83 
370 1344.21 
370.05 1326.96 
370.1 1311.15 
370.15 1256.91 
370.2 1165.81 
370.25 1091.03 
370.3 1049.4 
370.35 969.849 
370.4 899.506 
370.45 917.174 
370.5 971.941 
370.55 975.742 
370.6 965.927 
370.65 949.94 
370.7 923.14 
370.75 898.712 
370.8 913.315 
370.85 1027.81 
370.9 1139.99 
370.95 1196.63 
371 1258.48 
371.05 1310.92 
371.1 1364.72 
371.15 1412.83 
371.2 1476.99 
371.25 1534.37 
371.3 1525.96 
371.35 1489.77 
371.4 1405.5 
371.45 1332.75 
371.5 1338.02 
371.55 1357.51 
371.6 1348.45 
371.65 1265.37 
371.7 1072.45 
371.75 951.279 
371.8 849.122 
371.85 713.57 
371.9 660.012 
371.95 661.464 
372 692.633 
372.05 709.023 
372.1 764.532 
372.15 877.544 
372.2 1004.41 
372.25 1138.62 
372.3 1208.75 
372.35 1266.44 
372.4 1331.58 
372.45 1330.99 
372.5 1211.16 
372.55 1078.51 
372.6 947.66 
372.65 963.845 
372.7 1160.37 
372.75 1244.53 
372.8 1294.93 
372.85 1243.08 
372.9 1166.27 
372.95 1130.07 
373 1107.32 
373.05 1060.39 
373.1 952.076 
373.15 865.272 
373.2 763.655 
373.25 638.084 
373.3 530.314 
373.35 532.188 
373.4 532.304 
373.45 592.1 
373.5 603.589 
373.55 595.85 
373.6 629.149 
373.65 780.074 
373.7 954.792 
373.75 1021.4 
373.8 1109.23 
373.85 1192.81 
373.9 1282.74 
373.95 1312.36 
374 1300.61 
374.05 1236.41 
374.1 1120.15 
374.15 996.991 
374.2 910.825 
374.25 893.217 
374.3 903.562 
374.35 826.074 
374.4 752.785 
374.45 725.559 
374.5 781.614 
374.55 819.261 
374.6 800.794 
374.65 708.314 
374.7 610.018 
374.75 511.602 
374.8 512.397 
374.85 595.716 
374.9 737.738 
374.95 907.608 
375 1053.05 
375.05 1150.5 
375.1 1187.1 
375.15 1188.09 
375.2 1224.76 
375.25 1286.7 
375.3 1371.1 
375.35 1449.28 
375.4 1502.69 
375.45 1499.73 
375.5 1384.21 
375.55 1204.33 
375.6 1014.18 
375.65 838.802 
375.7 709.461 
375.75 755.952 
375.8 899.061 
375.85 1031.49 
375.9 1097.34 
375.95 1138.71 
376 1149.98 
376.05 1161.93 
376.1 1144.19 
376.15 1069.72 
376.2 985.5 
376.25 926.848 
376.3 1023.86 
376.35 1179.74 
376.4 1207.4 
376.45 1146.31 
376.5 1045.42 
376.55 945.331 
376.6 919.872 
376.65 986.73 
376.7 1092.18 
376.75 1187.45 
376.8 1201.22 
376.85 1133.62 
376.9 1036.76 
376.95 1033.19 
377 1154.05 
377.05 1219.37 
377.1 1289.87 
377.15 1359.04 
377.2 1379.73 
377.25 1370.88 
377.3 1348.26 
377.35 1316.08 
377.4 1304.52 
377.45 1315.45 
377.5 1339.27 
377.55 1376.11 
377.6 1361.08 
377.65 1340.3 
377.7 1328.52 
377.75 1345.24 
377.8 1410.26 
377.85 1464.75 
377.9 1520.61 
377.95 1521.21 
378 1493.83 
378.05 1461.38 
378.1 1453.66 
378.15 1468.08 
378.2 1508.59 
378.25 1551.8 
378.3 1569.73 
378.35 1565.25 
378.4 1431.15 
378.45 1253.26 
378.5 1141.53 
378.55 1112.41 
378.6 1125.31 
378.65 1130.92 
378.7 1123.22 
378.75 1089.2 
378.8 1039.09 
378.85 1028.61 
378.9 1066.7 
378.95 1159.72 
379 1259.78 
379.05 1283.27 
379.1 1242.06 
379.15 1168.81 
379.2 1098.1 
379.25 1042.51 
379.3 1003.44 
379.35 962.316 
379.4 999.714 
379.45 1042.41 
379.5 1068.46 
379.55 1016.04 
379.6 891.513 
379.65 816.543 
379.7 793.236 
379.75 803.327 
379.8 872.988 
379.85 1000.18 
379.9 1104.96 
379.95 1189.26 
380 1202.53 
380.05 1209.84 
380.1 1290.66 
380.15 1347.62 
380.2 1408.08 
380.25 1423.83 
380.3 1407.23 
380.35 1379.4 
380.4 1356.42 
380.45 1281.69 
380.5 1193.55 
380.55 1135.51 
380.6 1080.31 
380.65 1179.72 
380.7 1262.79 
380.75 1311.94 
380.8 1369.46 
380.85 1415.71 
380.9 1436.56 
380.95 1421.51 
381 1400.21 
381.05 1350.64 
381.1 1268.74 
381.15 1151.77 
381.2 1054.17 
381.25 1016.59 
381.3 959.481 
381.35 904.892 
381.4 811.122 
381.45 776.62 
381.5 851.836 
381.55 998.201 
381.6 1096.08 
381.65 1142.33 
381.7 1142.45 
381.75 1096.44 
381.8 933.996 
381.85 706.175 
381.9 610.152 
381.95 645.903 
382 772.847 
382.05 941.064 
382.1 1057.75 
382.15 1104.91 
382.2 1071.22 
382.25 854.642 
382.3 724.381 
382.35 647.357 
382.4 607.539 
382.45 604.166 
382.5 636.529 
382.55 651.625 
382.6 668.239 
382.65 676.399 
382.7 682.038 
382.75 699.809 
382.8 723.659 
382.85 771.362 
382.9 813.475 
382.95 813.43 
383 771.007 
383.05 658.035 
383.1 577.448 
383.15 574.851 
383.2 574.159 
383.25 582.309 
383.3 623.611 
383.35 666.806 
383.4 716.901 
383.45 774.372 
383.5 803.582 
383.55 785.894 
383.6 735.569 
383.65 630.081 
383.7 580.323 
383.75 595.572 
383.8 619.587 
383.85 635.897 
383.9 639.067 
383.95 651.115 
384 737.793 
384.05 912.219 
384.1 1095.35 
384.15 1093.52 
384.2 1092.74 
384.25 1101.08 
384.3 1127.22 
384.35 1134.06 
384.4 1120.56 
384.45 1087.52 
384.5 1082.15 
384.55 1140.7 
384.6 1200.7 
384.65 1241.17 
384.7 1226.5 
384.75 1129.67 
384.8 1012.17 
384.85 945.124 
384.9 924.42 
384.95 999.848 
385 1095.95 
385.05 1160.76 
385.1 1221.64 
385.15 1159.26 
385.2 1108.66 
385.25 1059.22 
385.3 1038.43 
385.35 1021.29 
385.4 1005.25 
385.45 949.301 
385.5 894.202 
385.55 947.838 
385.6 998.795 
385.65 969.612 
385.7 851.042 
385.75 743.209 
385.8 659.231 
385.85 620.143 
385.9 639.997 
385.95 712.877 
386 837.687 
386.05 992.542 
386.1 1150.84 
386.15 1263.3 
386.2 1280.86 
386.25 1254.48 
386.3 1209.93 
386.35 1152.82 
386.4 1118.76 
386.45 1090.12 
386.5 1091.96 
386.55 1121.34 
386.6 1112.55 
386.65 1098.11 
386.7 1091.38 
386.75 1076.87 
386.8 1027.98 
386.85 946.685 
386.9 865.229 
386.95 806.156 
387 751.375 
387.05 727.875 
387.1 747.011 
387.15 836.202 
387.2 922.66 
387.25 1003.74 
387.3 1134.44 
387.35 1258.39 
387.4 1288.78 
387.45 1296.4 
387.5 1270.05 
387.55 1181.02 
387.6 1035.2 
387.65 889.504 
387.7 812.035 
387.75 834.33 
387.8 972.775 
387.85 1076.51 
387.9 1084.36 
387.95 1037.86 
388 964.725 
388.05 879.296 
388.1 799.683 
388.15 845.843 
388.2 1009.61 
388.25 1146.76 
388.3 1204.47 
388.35 1134.5 
388.4 1048.93 
388.45 907.359 
388.5 817.4 
388.55 813.388 
388.6 876.094 
388.65 913.637 
388.7 911.468 
388.75 856.336 
388.8 850.72 
388.85 913.99 
388.9 1020.77 
388.95 1177.34 
389 1258.09 
389.05 1300.12 
389.1 1296.77 
389.15 1282.78 
389.2 1277.37 
389.25 1292.63 
389.3 1278.29 
389.35 1209.15 
389.4 1158.09 
389.45 1196.22 
389.5 1273.47 
389.55 1378.1 
389.6 1404.08 
389.65 1367.59 
389.7 1336.5 
389.75 1270.86 
389.8 1214.21 
389.85 1207.9 
389.9 1264.64 
389.95 1352.93 
390 1419.73 
390.05 1369.53 
390.1 1255.56 
390.15 1163.76 
390.2 1135.73 
390.25 1182.23 
390.3 1210.81 
390.35 1118.71 
390.4 1001.08 
390.45 985.666 
390.5 1015.6 
390.55 1138.11 
390.6 1268.47 
390.65 1376.88 
390.7 1425.86 
390.75 1436.09 
390.8 1415.84 
390.85 1378.33 
390.9 1362.59 
390.95 1381.88 
391 1440.72 
391.05 1503.47 
391.1 1539.62 
391.15 1520.24 
391.2 1453.62 
391.25 1404.59 
391.3 1419.6 
391.35 1455.19 
391.4 1438 
391.45 1384.8 
391.5 1366.76 
391.55 1369.66 
391.6 1385.75 
391.65 1359.91 
391.7 1327.23 
391.75 1309.53 
391.8 1266.17 
391.85 1188.95 
391.9 1107.8 
391.95 1034.95 
392 1028.98 
392.05 1071.87 
392.1 1099.13 
392.15 1104.94 
392.2 1144.67 
392.25 1215.77 
392.3 1250.97 
392.35 1231.88 
392.4 1145.08 
392.45 1068.35 
392.5 1029.06 
392.55 989.191 
392.6 894.572 
392.65 780.507 
392.7 704.51 
392.75 662.778 
392.8 628.368 
392.85 578.732 
392.9 526.136 
392.95 495.271 
393 457.258 
393.05 388.675 
393.1 355.473 
393.15 318.092 
393.2 270.052 
393.25 247.521 
393.3 277.241 
393.35 321.136 
393.4 357.119 
393.45 414.136 
393.5 501.409 
393.55 545.409 
393.6 578.536 
393.65 641.25 
393.7 749.366 
393.75 843.102 
393.8 893.311 
393.85 941.757 
393.9 956.183 
393.95 963.18 
394 975.593 
394.05 1010.03 
394.1 1025.85 
394.15 980.145 
394.2 925.154 
394.25 847.167 
394.3 868.896 
394.35 976.441 
394.4 1083.79 
394.45 1234.93 
394.5 1320.11 
394.55 1312.94 
394.6 1268.64 
394.65 1202.86 
394.7 1177.52 
394.75 1204.85 
394.8 1275.81 
394.85 1365.39 
394.9 1424.91 
394.95 1457.61 
395 1456.19 
395.05 1377.37 
395.1 1274.82 
395.15 1224.98 
395.2 1246.96 
395.25 1319.85 
395.3 1444.33 
395.35 1471.08 
395.4 1434.63 
395.45 1316.17 
395.5 1220.92 
395.55 1224.52 
395.6 1247.22 
395.65 1308.09 
395.7 1380.17 
395.75 1422.01 
395.8 1447.24 
395.85 1422.87 
395.9 1264.02 
395.95 1032.67 
396 885.105 
396.05 841.689 
396.1 826.942 
396.15 838.289 
396.2 863.541 
396.25 870.969 
396.3 852.552 
396.35 810.636 
396.4 756.447 
396.45 676.122 
396.5 549.137 
396.55 472.589 
396.6 409.858 
396.65 352.719 
396.7 305.069 
396.75 295.655 
396.8 323.879 
396.85 367.885 
396.9 446.135 
396.95 522.974 
397 600.911 
397.05 663.673 
397.1 746.42 
397.15 807.187 
397.2 846.201 
397.25 879.164 
397.3 942.655 
397.35 1042.5 
397.4 1113.58 
397.45 1156.45 
397.5 1194.16 
397.55 1221.57 
397.6 1258.98 
397.65 1308.4 
397.7 1385.46 
397.75 1444.59 
397.8 1506.36 
397.85 1575.09 
397.9 1596.39 
397.95 1594.14 
398 1570.07 
398.05 1529.14 
398.1 1493.32 
398.15 1472.53 
398.2 1465.85 
398.25 1454.87 
398.3 1463.01 
398.35 1509.09 
398.4 1545.35 
398.45 1542.96 
398.5 1493.31 
398.55 1458.97 
398.6 1520.91 
398.65 1604.75 
398.7 1691.12 
398.75 1690.63 
398.8 1654.08 
398.85 1605.04 
398.9 1603.17 
398.95 1643.42 
399 1659.35 
399.05 1685.13 
399.1 1716.53 
399.15 1738.65 
399.2 1725.31 
399.25 1706.38 
399.3 1670.52 
399.35 1638.51 
399.4 1629.34 
399.45 1630.8 
399.5 1619.89 
399.55 1555.46 
399.6 1493.82 
399.65 1467.96 
399.7 1499.05 
399.75 1638.05 
399.8 1759.33 
399.85 1824.7 
399.9 1816.5 
399.95 1757.77 
400 1719.31 
400.05 1732.29 
400.1 1783.1 
400.15 1858.51 
400.2 1895.7 
400.25 1867.87 
400.3 1773.93 
400.35 1564.6 
400.4 1349.12 
400.45 1314.27 
400.5 1374.76 
400.55 1473.81 
400.6 1617.16 
400.65 1726.77 
400.7 1792.19 
400.75 1793 
400.8 1767.97 
400.85 1751.05 
400.9 1755.36 
400.95 1780.04 
401 1786.55 
401.05 1790.88 
401.1 1811.85 
401.15 1832.43 
401.2 1808.71 
401.25 1773.16 
401.3 1767.31 
401.35 1789.23 
401.4 1832.27 
401.45 1860.16 
401.5 1832.62 
401.55 1766.43 
401.6 1670.32 
401.65 1627.32 
401.7 1688.11 
401.75 1805.83 
401.8 1896.35 
401.85 1892.46 
401.9 1860.01 
401.95 1807.4 
402 1786.4 
402.05 1793.19 
402.1 1813.24 
402.15 1836.94 
402.2 1840.77 
402.25 1810.15 
402.3 1762.6 
402.35 1727.89 
402.4 1724.2 
402.45 1767.47 
402.5 1820.21 
402.55 1865.87 
402.6 1898.33 
402.65 1921.85 
402.7 1938.83 
402.75 1951.55 
402.8 1906.8 
402.85 1754.53 
402.9 1588.94 
402.95 1491.85 
403 1468.92 
403.05 1523.25 
403.1 1519.43 
403.15 1492.41 
403.2 1476.1 
403.25 1493.59 
403.3 1539.32 
403.35 1584.18 
403.4 1625.79 
403.45 1685.66 
403.5 1759.44 
403.55 1846.97 
403.6 1934.05 
403.65 1980.64 
403.7 1986.77 
403.75 1975.63 
403.8 1931.03 
403.85 1864.6 
403.9 1787.97 
403.95 1749.48 
404 1754.17 
404.05 1835.56 
404.1 1920.87 
404.15 1957.28 
404.2 1913.37 
404.25 1743.47 
404.3 1547.65 
404.35 1430.02 
404.4 1221.9 
404.45 1074.32 
404.5 1146.07 
404.55 1339.98 
404.6 1547.38 
404.65 1717.98 
404.7 1813.07 
404.75 1829.17 
404.8 1820.92 
404.85 1868.81 
404.9 1907.84 
404.95 1925.48 
405 1896.81 
405.05 1824.68 
405.1 1766.7 
405.15 1724.49 
405.2 1708.11 
405.25 1709.24 
405.3 1681.59 
405.35 1636.51 
405.4 1620.03 
405.45 1665.75 
405.5 1703.09 
405.55 1668.38 
405.6 1565.9 
405.65 1501.16 
405.7 1477.2 
405.75 1513.31 
405.8 1609.67 
405.85 1738.42 
405.9 1810.9 
405.95 1858.92 
406 1853.28 
406.05 1790.99 
406.1 1648.57 
406.15 1491.32 
406.2 1336.58 
406.25 1207.59 
406.3 1260.78 
406.35 1437.3 
406.4 1600.89 
406.45 1701.41 
406.5 1655.08 
406.55 1570.39 
406.6 1543.93 
406.65 1614.85 
406.7 1745.32 
406.75 1835.84 
406.8 1895.98 
406.85 1876.01 
406.9 1787.51 
406.95 1646.48 
407 1540.52 
407.05 1435.22 
407.1 1416.71 
407.15 1587.79 
407.2 1747.52 
407.25 1819.91 
407.3 1837.59 
407.35 1812.99 
407.4 1756.03 
407.45 1660.34 
407.5 1550.91 
407.55 1464.33 
407.6 1409.03 
407.65 1411.51 
407.7 1466.6 
407.75 1530.22 
407.8 1598.07 
407.85 1680.75 
407.9 1792.21 
407.95 1884.85 
408 1941.11 
408.05 1951.39 
408.1 1902.45 
408.15 1845.49 
408.2 1786.42 
408.25 1701.53 
408.3 1647.96 
408.35 1635.1 
408.4 1640.16 
408.45 1689.69 
408.5 1763.48 
408.55 1830.41 
408.6 1898.65 
408.65 1965.66 
408.7 2012.71 
408.75 2016.92 
408.8 2003.02 
408.85 1974.37 
408.9 1933.35 
408.95 1911.58 
409 1902.77 
409.05 1852.13 
409.1 1778.57 
409.15 1779.42 
409.2 1851.93 
409.25 1920.41 
409.3 1911.6 
409.35 1830.22 
409.4 1754.81 
409.45 1672.2 
409.5 1631.74 
409.55 1632.53 
409.6 1643.19 
409.65 1646.83 
409.7 1644.87 
409.75 1637.58 
409.8 1633.39 
409.85 1609.67 
409.9 1498.63 
409.95 1324.27 
410 1190.47 
410.05 1104.17 
410.1 1141.05 
410.15 1256.37 
410.2 1357.44 
410.25 1460.54 
410.3 1540.57 
410.35 1633.57 
410.4 1679.45 
410.45 1724.75 
410.5 1762.87 
410.55 1786.37 
410.6 1792.89 
410.65 1787.49 
410.7 1784.44 
410.75 1772.51 
410.8 1758.66 
410.85 1742.36 
410.9 1738.81 
410.95 1746.31 
411 1754.35 
411.05 1764.97 
411.1 1782.74 
411.15 1832.63 
411.2 1880.88 
411.25 1922.01 
411.3 1940.11 
411.35 1920.05 
411.4 1934.09 
411.45 1960.38 
411.5 1977.57 
411.55 2004.98 
411.6 2009.53 
411.65 1964.34 
411.7 1860.24 
411.75 1704.98 
411.8 1703.3 
411.85 1745.05 
411.9 1814.28 
411.95 1887.87 
412 1892.8 
412.05 1872.66 
412.1 1852.05 
412.15 1823.65 
412.2 1811.46 
412.25 1839.63 
412.3 1885.44 
412.35 1915.19 
412.4 1925.53 
412.45 1887.17 
412.5 1836.19 
412.55 1801.54 
412.6 1773.15 
412.65 1746.7 
412.7 1742.85 
412.75 1771.06 
412.8 1808.44 
412.85 1835.6 
412.9 1854.78 
412.95 1854.37 
413 1795.78 
413.05 1670.67 
413.1 1558.38 
413.15 1547.85 
413.2 1586.67 
413.25 1608.45 
413.3 1597.95 
413.35 1659.53 
413.4 1785.81 
413.45 1887.08 
413.5 1943.01 
413.55 1936.09 
413.6 1906.83 
413.65 1904.94 
413.7 1936.6 
413.75 1984.92 
413.8 2015.47 
413.85 2010.45 
413.9 2002.89 
413.95 2001.01 
414 1989.66 
414.05 1919.15 
414.1 1807.07 
414.15 1640.29 
414.2 1489.99 
414.25 1428.75 
414.3 1462.55 
414.35 1618.24 
414.4 1759.6 
414.45 1845.6 
414.5 1883.39 
414.55 1895.17 
414.6 1890.21 
414.65 1900 
414.7 1914.56 
414.75 1879.58 
414.8 1785.99 
414.85 1754.02 
414.9 1769.55 
414.95 1816.05 
415 1852.18 
415.05 1842.92 
415.1 1835.04 
415.15 1840.13 
415.2 1811.85 
415.25 1708.57 
415.3 1616.73 
415.35 1638.13 
415.4 1717.43 
415.45 1736.23 
415.5 1717.9 
415.55 1684.07 
415.6 1684.12 
415.65 1735.75 
415.7 1769.27 
415.75 1796.12 
415.8 1839.7 
415.85 1889.55 
415.9 1890.24 
415.95 1876.12 
416 1885.09 
416.05 1924.62 
416.1 1965.71 
416.15 1994.51 
416.2 2009.64 
416.25 1991.21 
416.3 1968.44 
416.35 1957.93 
416.4 1955.61 
416.45 1949.62 
416.5 1921.63 
416.55 1861.44 
416.6 1759.44 
416.65 1705.14 
416.7 1723.72 
416.75 1808.59 
416.8 1898.74 
416.85 1918.73 
416.9 1910.9 
416.95 1884.83 
417 1798.72 
417.05 1660.45 
417.1 1582.08 
417.15 1541.81 
417.2 1530.85 
417.25 1584.84 
417.3 1651.88 
417.35 1686.96 
417.4 1711.7 
417.45 1742 
417.5 1758.08 
417.55 1761.43 
417.6 1721.12 
417.65 1680.18 
417.7 1689.34 
417.75 1720.73 
417.8 1776.61 
417.85 1853.73 
417.9 1885.5 
417.95 1873.34 
418 1803.26 
418.05 1684.61 
418.1 1651.27 
418.15 1665.85 
418.2 1686.78 
418.25 1719.31 
418.3 1756.19 
418.35 1812.97 
418.4 1864.45 
418.45 1861.46 
418.5 1801.1 
418.55 1672.47 
418.6 1554.55 
418.65 1514.56 
418.7 1536.74 
418.75 1600.37 
418.8 1723.33 
418.85 1845.75 
418.9 1866.99 
418.95 1848.8 
419 1790.7 
419.05 1750.5 
419.1 1790.08 
419.15 1884.67 
419.2 1991.76 
419.25 2042.92 
419.3 2001.28 
419.35 1899.97 
419.4 1784.57 
419.45 1689.7 
419.5 1666.58 
419.55 1699.38 
419.6 1716.85 
419.65 1653.93 
419.7 1549.78 
419.75 1507.59 
419.8 1519.94 
419.85 1595.27 
