# extracted from http://earth.eo.esa.int/pub/ESA_DOC/MERIS_Wavelengths_and_Irradiances_Model2004.xls
# "The data contained herein correspond to the MERIS Spectral Model derived in 2004."
# "The bands definition correspond to the so-called SciHiO2 band set, used since 24 December 2002."
# Response function of nominal camera of MERIS.
552.0000 0.000000
552.1000 0.000000
552.2000 0.000000
552.3000 0.000000
552.4000 0.000069
552.5000 0.000122
552.6000 0.000213
552.7000 0.000364
552.8000 0.000612
552.9000 0.001009
553.0000 0.001633
553.1000 0.002595
553.2000 0.004048
553.3000 0.006201
553.4000 0.009322
553.5000 0.013758
553.6000 0.019940
553.7000 0.028368
553.8000 0.039633
553.9000 0.054358
554.0000 0.073208
554.1000 0.096838
554.2000 0.125781
554.3000 0.160492
554.4000 0.201138
554.5000 0.247673
554.6000 0.299741
554.7000 0.356545
554.8000 0.417077
554.9000 0.479894
555.0000 0.543448
555.1000 0.606091
555.2000 0.666093
555.3000 0.722041
555.4000 0.772675
555.5000 0.817225
555.6000 0.855339
555.7000 0.887027
555.8000 0.912759
555.9000 0.933210
556.0000 0.949259
556.1000 0.961803
556.2000 0.971634
556.3000 0.979413
556.4000 0.985587
556.5000 0.990433
556.6000 0.994088
556.7000 0.996615
556.8000 0.998081
556.9000 0.998603
557.0000 0.998383
557.1000 0.997695
557.2000 0.996854
557.3000 0.996160
557.4000 0.995843
557.5000 0.996016
557.6000 0.996655
557.7000 0.997611
557.8000 0.998653
557.9000 0.999521
558.0000 1.000000
558.1000 0.999968
558.2000 0.999431
558.3000 0.998519
558.4000 0.997454
558.5000 0.996499
558.6000 0.995887
558.7000 0.995766
558.8000 0.996165
558.9000 0.996979
559.0000 0.998004
559.1000 0.998982
559.2000 0.999666
559.3000 0.999882
559.4000 0.999574
559.5000 0.998814
559.6000 0.997787
559.7000 0.996745
559.8000 0.995943
559.9000 0.995577
560.0000 0.995734
560.1000 0.996372
560.2000 0.997329
560.3000 0.998365
560.4000 0.999217
560.5000 0.999671
560.6000 0.999610
560.7000 0.999046
560.8000 0.998114
560.9000 0.997044
561.0000 0.996096
561.1000 0.995502
561.2000 0.995408
561.3000 0.995832
561.4000 0.996666
561.5000 0.997698
561.6000 0.998671
561.7000 0.999336
561.8000 0.999526
561.9000 0.999188
562.0000 0.998402
562.1000 0.997356
562.2000 0.996305
562.3000 0.995497
562.4000 0.995120
562.5000 0.995245
562.6000 0.995808
562.7000 0.996614
562.8000 0.997383
562.9000 0.997793
563.0000 0.997552
563.1000 0.996429
563.2000 0.994281
563.3000 0.991031
563.4000 0.986629
563.5000 0.980976
563.6000 0.973855
563.7000 0.964891
563.8000 0.953491
563.9000 0.938909
564.0000 0.920262
564.1000 0.896639
564.2000 0.867284
564.3000 0.831608
564.4000 0.789448
564.5000 0.740993
564.6000 0.686860
564.7000 0.628178
564.8000 0.566270
564.9000 0.502828
565.0000 0.439510
565.1000 0.377921
565.2000 0.319600
565.3000 0.265671
565.4000 0.217063
565.5000 0.174254
565.6000 0.137401
565.7000 0.106430
565.8000 0.080951
565.9000 0.060474
566.0000 0.044360
566.1000 0.031944
566.2000 0.022589
566.3000 0.015679
566.4000 0.010687
566.5000 0.007151
566.6000 0.004696
566.7000 0.003028
566.8000 0.001917
566.9000 0.001191
567.0000 0.000727
567.1000 0.000435
567.2000 0.000256
567.3000 0.000148
567.4000 0.000000
