# extracted from http://earth.eo.esa.int/pub/ESA_DOC/MERIS_Wavelengths_and_Irradiances_Model2004.xls
# "The data contained herein correspond to the MERIS Spectral Model derived in 2004."
# "The bands definition correspond to the so-called SciHiO2 band set, used since 24 December 2002."
# Response function of nominal camera of MERIS.
877.3000 0.000000
877.4000 0.000000
877.5000 0.000000
877.6000 0.000000
877.7000 0.000000
877.8000 0.000076
877.9000 0.000138
878.0000 0.000248
878.1000 0.000434
878.2000 0.000745
878.3000 0.001254
878.4000 0.002066
878.5000 0.003338
878.6000 0.005280
878.7000 0.008186
878.8000 0.012431
878.9000 0.018497
879.0000 0.026974
879.1000 0.038535
879.2000 0.053955
879.3000 0.074014
879.4000 0.099502
879.5000 0.131125
879.6000 0.169348
879.7000 0.214441
879.8000 0.266207
879.9000 0.324100
880.0000 0.387127
880.1000 0.453742
880.2000 0.522188
880.3000 0.590311
880.4000 0.656025
880.5000 0.717372
880.6000 0.772614
880.7000 0.820646
880.8000 0.860836
880.9000 0.893261
881.0000 0.918541
881.1000 0.937682
881.2000 0.951988
881.3000 0.962760
881.4000 0.971173
881.5000 0.978105
881.6000 0.984064
881.7000 0.989232
881.8000 0.993514
881.9000 0.996692
882.0000 0.998561
882.1000 0.999046
882.2000 0.998283
882.3000 0.996623
882.4000 0.994577
882.5000 0.992710
882.6000 0.991519
882.7000 0.991317
882.8000 0.992167
882.9000 0.993865
883.0000 0.995999
883.1000 0.998043
883.2000 0.999496
883.3000 1.000000
883.4000 0.999430
883.5000 0.997924
883.6000 0.995853
883.7000 0.993720
883.8000 0.992052
883.9000 0.991255
884.0000 0.991524
884.1000 0.992792
884.2000 0.994746
884.3000 0.996904
884.4000 0.998735
884.5000 0.999789
884.6000 0.999804
884.7000 0.998774
884.8000 0.996953
884.9000 0.994786
885.0000 0.992802
885.1000 0.991489
885.2000 0.991168
885.3000 0.991916
885.4000 0.993548
885.5000 0.995663
885.6000 0.997738
885.7000 0.999264
885.8000 0.999862
885.9000 0.999387
886.0000 0.997951
886.1000 0.995907
886.2000 0.993754
886.3000 0.992022
886.4000 0.991133
886.5000 0.991304
886.6000 0.992493
886.7000 0.994406
886.8000 0.996571
886.9000 0.998455
887.0000 0.999596
887.1000 0.999709
887.2000 0.998765
887.3000 0.996996
887.4000 0.994832
887.5000 0.992802
887.6000 0.991401
887.7000 0.990966
887.8000 0.991594
887.9000 0.993111
888.0000 0.995117
888.1000 0.997068
888.2000 0.998407
888.3000 0.998677
888.4000 0.997614
888.5000 0.995173
888.6000 0.991500
888.7000 0.986821
888.8000 0.981330
888.9000 0.975021
889.0000 0.967581
889.1000 0.958353
889.2000 0.946314
889.3000 0.930229
889.4000 0.908761
889.5000 0.880682
889.6000 0.845143
889.7000 0.801710
889.8000 0.750640
889.9000 0.692737
890.0000 0.629352
890.1000 0.562385
890.2000 0.493834
890.3000 0.425912
890.4000 0.360573
890.5000 0.299479
890.6000 0.244004
890.7000 0.194923
890.8000 0.152685
890.9000 0.117238
891.0000 0.088217
891.1000 0.065066
891.2000 0.047019
891.3000 0.033302
891.4000 0.023112
891.5000 0.015712
891.6000 0.010469
891.7000 0.006832
891.8000 0.004370
891.9000 0.002738
892.0000 0.001681
892.1000 0.001011
892.2000 0.000596
892.3000 0.000344
892.4000 0.000195
892.5000 0.000108
