# extracted from http://earth.eo.esa.int/pub/ESA_DOC/MERIS_Wavelengths_and_Irradiances_Model2004.xls
# "The data contained herein correspond to the MERIS Spectral Model derived in 2004."
# "The bands definition correspond to the so-called SciHiO2 band set, used since 24 December 2002."
# Response function of nominal camera of MERIS.
768.3000 0.000000
768.4000 0.000000
768.5000 0.000000
768.6000 0.000000
768.7000 0.000057
768.8000 0.000104
768.9000 0.000188
769.0000 0.000330
769.1000 0.000571
769.2000 0.000966
769.3000 0.001603
769.4000 0.002607
769.5000 0.004154
769.6000 0.006488
769.7000 0.009929
769.8000 0.014892
769.9000 0.021897
770.0000 0.031548
770.1000 0.044562
770.2000 0.061683
770.3000 0.083699
770.4000 0.111356
770.5000 0.145226
770.6000 0.185739
770.7000 0.232930
770.8000 0.286527
770.9000 0.345842
771.0000 0.409635
771.1000 0.476416
771.2000 0.544227
771.3000 0.611065
771.4000 0.674934
771.5000 0.733916
771.6000 0.786618
771.7000 0.832021
771.8000 0.869788
771.9000 0.900143
772.0000 0.923758
772.1000 0.941727
772.2000 0.955264
772.3000 0.965600
772.4000 0.973773
772.5000 0.980515
772.6000 0.986248
772.7000 0.991075
772.8000 0.994908
772.9000 0.997574
773.0000 0.998944
773.1000 0.999038
773.2000 0.998065
773.3000 0.996417
773.4000 0.994590
773.5000 0.993094
773.6000 0.992329
773.7000 0.992502
773.8000 0.993580
773.9000 0.995302
774.0000 0.997242
774.1000 0.998922
774.2000 0.999925
774.3000 1.000000
774.4000 0.999126
774.5000 0.997515
774.6000 0.995560
774.7000 0.993741
774.8000 0.992502
774.9000 0.992146
775.0000 0.992757
775.1000 0.994183
775.2000 0.996068
775.3000 0.997943
775.4000 0.999345
775.5000 0.999923
775.6000 0.999530
775.7000 0.998262
775.8000 0.996427
775.9000 0.994472
776.0000 0.992879
776.1000 0.992035
776.2000 0.992147
776.3000 0.993183
776.4000 0.994886
776.5000 0.996831
776.6000 0.998537
776.7000 0.999579
776.8000 0.999697
776.9000 0.998858
777.0000 0.997266
777.1000 0.995309
777.2000 0.993468
777.3000 0.992192
777.4000 0.991793
777.5000 0.992366
777.6000 0.993769
777.7000 0.995650
777.8000 0.997543
777.9000 0.998980
778.0000 0.999601
778.1000 0.999251
778.2000 0.998011
778.3000 0.996186
778.4000 0.994219
778.5000 0.992595
778.6000 0.991709
778.7000 0.991778
778.8000 0.992782
778.9000 0.994470
779.0000 0.996422
779.1000 0.998156
779.2000 0.999238
779.3000 0.999401
779.4000 0.998599
779.5000 0.997028
779.6000 0.995071
779.7000 0.993208
779.8000 0.991894
779.9000 0.991450
780.0000 0.991984
780.1000 0.993361
780.2000 0.995238
780.3000 0.997149
780.4000 0.998621
780.5000 0.999286
780.6000 0.998979
780.7000 0.997770
780.8000 0.995956
780.9000 0.993978
781.0000 0.992324
781.1000 0.991395
781.2000 0.991420
781.3000 0.992389
781.4000 0.994061
781.5000 0.996019
781.6000 0.997779
781.7000 0.998903
781.8000 0.999112
781.9000 0.998349
782.0000 0.996801
782.1000 0.994844
782.2000 0.992960
782.3000 0.991608
782.4000 0.991120
782.5000 0.991612
782.6000 0.992962
782.7000 0.994832
782.8000 0.996759
782.9000 0.998266
783.0000 0.998977
783.1000 0.998714
783.2000 0.997537
783.3000 0.995734
783.4000 0.993743
783.5000 0.992052
783.6000 0.991069
783.7000 0.991026
783.8000 0.991919
783.9000 0.993503
784.0000 0.995344
784.1000 0.996926
784.2000 0.997752
784.3000 0.997457
784.4000 0.995859
784.5000 0.992976
784.6000 0.988955
784.7000 0.983981
784.8000 0.978131
784.9000 0.971255
785.0000 0.962902
785.1000 0.952267
785.2000 0.938282
785.3000 0.919698
785.4000 0.895260
785.5000 0.863962
785.6000 0.825115
785.7000 0.778633
785.8000 0.724957
785.9000 0.665089
786.0000 0.600641
786.1000 0.533428
786.2000 0.465592
786.3000 0.399133
786.4000 0.335857
786.5000 0.277359
786.6000 0.224672
786.7000 0.178518
786.8000 0.139093
786.9000 0.106239
787.0000 0.079563
787.1000 0.058397
787.2000 0.042020
787.3000 0.029635
787.4000 0.020480
787.5000 0.013874
787.6000 0.009209
787.7000 0.005991
787.8000 0.003820
787.9000 0.002386
788.0000 0.001461
788.1000 0.000877
788.2000 0.000516
788.3000 0.000297
788.4000 0.000168
788.5000 0.000000
