# extracted from http://earth.eo.esa.int/pub/ESA_DOC/MERIS_Wavelengths_and_Irradiances_Model2004.xls
# "The data contained herein correspond to the MERIS Spectral Model derived in 2004."
# "The bands definition correspond to the so-called SciHiO2 band set, used since 24 December 2002."
# Response function of nominal camera of MERIS.
892.3000 0.000000
892.4000 0.000000
892.5000 0.000000
892.6000 0.000000
892.7000 0.000000
892.8000 0.000053
892.9000 0.000099
893.0000 0.000178
893.1000 0.000316
893.2000 0.000550
893.3000 0.000936
893.4000 0.001562
893.5000 0.002552
893.6000 0.004086
893.7000 0.006410
893.8000 0.009851
893.9000 0.014831
894.0000 0.021884
894.1000 0.031631
894.2000 0.044806
894.3000 0.062181
894.4000 0.084563
894.5000 0.112722
894.6000 0.147242
894.7000 0.188558
894.8000 0.236692
894.9000 0.291340
895.0000 0.351763
895.1000 0.416651
895.2000 0.484430
895.3000 0.553052
895.4000 0.620432
895.5000 0.684507
895.6000 0.743324
895.7000 0.795490
895.8000 0.840027
895.9000 0.876675
896.0000 0.905762
896.1000 0.928080
896.2000 0.944837
896.3000 0.957341
896.4000 0.966881
896.5000 0.974514
896.6000 0.980951
896.7000 0.986553
896.8000 0.991353
896.9000 0.995182
897.0000 0.997804
897.1000 0.999052
897.2000 0.998940
897.3000 0.997703
897.4000 0.995777
897.5000 0.993715
897.6000 0.992076
897.7000 0.991289
897.8000 0.991564
897.9000 0.992842
898.0000 0.994815
898.1000 0.996997
898.2000 0.998856
898.3000 0.999931
898.4000 0.999960
898.5000 0.998932
898.6000 0.997099
898.7000 0.994908
898.8000 0.992897
898.9000 0.991557
899.0000 0.991216
899.1000 0.991956
899.2000 0.993594
899.3000 0.995725
899.4000 0.997826
899.5000 0.999379
899.6000 1.000000
899.7000 0.999535
899.8000 0.998097
899.9000 0.996037
900.0000 0.993858
900.1000 0.992095
900.2000 0.991178
900.3000 0.991331
900.4000 0.992515
900.5000 0.994438
900.6000 0.996625
900.7000 0.998539
900.8000 0.999707
900.9000 0.999842
901.0000 0.998906
901.1000 0.997131
901.2000 0.994947
901.3000 0.992891
901.4000 0.991466
901.5000 0.991018
901.6000 0.991658
901.7000 0.993227
901.8000 0.995336
901.9000 0.997467
902.0000 0.999096
902.1000 0.999820
902.2000 0.999459
902.3000 0.998100
902.4000 0.996074
902.5000 0.993875
902.6000 0.992041
902.7000 0.991014
902.8000 0.991041
902.9000 0.992099
903.0000 0.993909
903.1000 0.995987
903.2000 0.997765
903.3000 0.998708
903.4000 0.998433
903.5000 0.996769
903.6000 0.993765
903.7000 0.989619
903.8000 0.984574
903.9000 0.978757
904.0000 0.972044
904.1000 0.963990
904.2000 0.953759
904.3000 0.940230
904.4000 0.922082
904.5000 0.897986
904.6000 0.866869
904.7000 0.827992
904.8000 0.781256
904.9000 0.727111
905.0000 0.666600
905.1000 0.601397
905.2000 0.533388
905.3000 0.464787
905.4000 0.397656
905.5000 0.333848
905.6000 0.274983
905.7000 0.222099
905.8000 0.175908
905.9000 0.136580
906.0000 0.103924
906.1000 0.077512
906.2000 0.056643
906.3000 0.040570
906.4000 0.028472
906.5000 0.019574
906.6000 0.013188
906.7000 0.008703
906.8000 0.005628
906.9000 0.003566
907.0000 0.002213
907.1000 0.001346
907.2000 0.000802
907.3000 0.000468
907.4000 0.000268
907.5000 0.000150
