# extracted from http://earth.eo.esa.int/pub/ESA_DOC/MERIS_Wavelengths_and_Irradiances_Model2004.xls
# "The data contained herein correspond to the MERIS Spectral Model derived in 2004."
# "The bands definition correspond to the so-called SciHiO2 band set, used since 24 December 2002."
# Response function of nominal camera of MERIS.
852.2000 0.000000
852.3000 0.000000
852.4000 0.000000
852.5000 0.000000
852.6000 0.000000
852.7000 0.000070
852.8000 0.000127
852.9000 0.000228
853.0000 0.000401
853.1000 0.000690
853.2000 0.001164
853.3000 0.001922
853.4000 0.003113
853.5000 0.004937
853.6000 0.007674
853.7000 0.011684
853.8000 0.017432
853.9000 0.025490
854.0000 0.036514
854.1000 0.051267
854.2000 0.070524
854.3000 0.095079
854.4000 0.125655
854.5000 0.162750
854.6000 0.206683
854.7000 0.257322
854.8000 0.314193
854.9000 0.376383
855.0000 0.442417
855.1000 0.510600
855.2000 0.578815
855.3000 0.644980
855.4000 0.707113
855.5000 0.763415
855.6000 0.812698
855.7000 0.854225
855.8000 0.887967
855.9000 0.914454
856.0000 0.934619
856.1000 0.949730
856.2000 0.961083
856.3000 0.969881
856.4000 0.977053
856.5000 0.983168
856.6000 0.988466
856.7000 0.992892
856.8000 0.996253
856.9000 0.998338
857.0000 0.999050
857.1000 0.998490
857.2000 0.996976
857.3000 0.994991
857.4000 0.993092
857.5000 0.991789
857.6000 0.991426
857.7000 0.992106
857.8000 0.993668
857.9000 0.995734
858.0000 0.997794
858.1000 0.999344
858.2000 1.000000
858.3000 0.999602
858.4000 0.998245
858.5000 0.996262
858.6000 0.994138
858.7000 0.992396
858.8000 0.991462
858.9000 0.991564
859.0000 0.992675
859.1000 0.994524
859.2000 0.996651
859.3000 0.998534
859.4000 0.999709
859.5000 0.999884
859.6000 0.999016
859.7000 0.997317
859.8000 0.995203
859.9000 0.993191
860.0000 0.991776
860.1000 0.991305
860.2000 0.991891
860.3000 0.993390
860.4000 0.995432
860.5000 0.997513
860.6000 0.999121
860.7000 0.999858
860.8000 0.999543
860.9000 0.998251
861.0000 0.996299
861.1000 0.994163
861.2000 0.992371
861.3000 0.991359
861.4000 0.991376
861.5000 0.992416
861.6000 0.994223
861.7000 0.996350
861.8000 0.998274
861.9000 0.999521
862.0000 0.999782
862.1000 0.998992
862.2000 0.997344
862.3000 0.995241
862.4000 0.993199
862.5000 0.991719
862.6000 0.991163
862.7000 0.991667
862.8000 0.993106
862.9000 0.995125
863.0000 0.997225
863.1000 0.998891
863.2000 0.999710
863.3000 0.999480
863.4000 0.998256
863.5000 0.996338
863.6000 0.994195
863.7000 0.992354
863.8000 0.991265
863.9000 0.991195
864.0000 0.992160
864.1000 0.993922
864.2000 0.996046
864.3000 0.998008
864.4000 0.999327
864.5000 0.999674
864.6000 0.998964
864.7000 0.997371
864.8000 0.995284
864.9000 0.993214
865.0000 0.991670
865.1000 0.991029
865.2000 0.991449
865.3000 0.992824
865.4000 0.994816
865.5000 0.996933
865.6000 0.998655
865.7000 0.999555
865.8000 0.999412
865.9000 0.998259
866.0000 0.996379
866.1000 0.994231
866.2000 0.992344
866.3000 0.991179
866.4000 0.991021
866.5000 0.991908
866.6000 0.993622
866.7000 0.995738
866.8000 0.997737
866.9000 0.999125
867.0000 0.999560
867.1000 0.998933
867.2000 0.997398
867.3000 0.995330
867.4000 0.993235
867.5000 0.991629
867.6000 0.990903
867.7000 0.991237
867.8000 0.992545
867.9000 0.994506
868.0000 0.996636
868.1000 0.998411
868.2000 0.999392
868.3000 0.999338
868.4000 0.998260
868.5000 0.996422
868.6000 0.994273
868.7000 0.992342
868.8000 0.991101
868.9000 0.990854
869.0000 0.991661
869.1000 0.993322
869.2000 0.995427
869.3000 0.997458
869.4000 0.998916
869.5000 0.999438
869.6000 0.998897
869.7000 0.997423
869.8000 0.995378
869.9000 0.993262
870.0000 0.991595
870.1000 0.990785
870.2000 0.991030
870.3000 0.992267
870.4000 0.994194
870.5000 0.996333
870.6000 0.998160
870.7000 0.999221
870.8000 0.999257
870.9000 0.998256
871.0000 0.996464
871.1000 0.994318
871.2000 0.992346
871.3000 0.991031
871.4000 0.990694
871.5000 0.991417
871.6000 0.993022
871.7000 0.995112
871.8000 0.997173
871.9000 0.998698
872.0000 0.999308
872.1000 0.998854
872.2000 0.997445
872.3000 0.995426
872.4000 0.993289
872.5000 0.991557
872.6000 0.990650
872.7000 0.990783
872.8000 0.991908
872.9000 0.993726
873.0000 0.995751
873.1000 0.997421
873.2000 0.998223
873.3000 0.997797
873.4000 0.995995
873.5000 0.992881
873.6000 0.988652
873.7000 0.983533
873.8000 0.977617
873.9000 0.970744
874.0000 0.962422
874.1000 0.951786
874.2000 0.937699
874.3000 0.918845
874.4000 0.893925
874.5000 0.861919
874.6000 0.822155
874.7000 0.774604
874.8000 0.719786
874.9000 0.658800
875.0000 0.593356
875.1000 0.525353
875.2000 0.456998
875.3000 0.390321
875.4000 0.327133
875.5000 0.269002
875.6000 0.216913
875.7000 0.171525
875.8000 0.132970
875.9000 0.101024
876.0000 0.075239
876.1000 0.054905
876.2000 0.039271
876.3000 0.027524
876.4000 0.018899
876.5000 0.012717
876.6000 0.008383
876.7000 0.005416
876.8000 0.003428
876.9000 0.002125
877.0000 0.001291
877.1000 0.000769
877.2000 0.000448
877.3000 0.000256
877.4000 0.000143
